M1,M2
MVC,205,MVC,259
1,7
1,7
2,7
2,7
2,7
2,7
2,7
2,7
2,7
2,7
2,7
2,6
2,6
2,5
2,5
2,5
2,5
1,5
1,5
1,5
1,5
1,5
1,5
1,4
1,4
1,4
1,4
1,4
1,4
1,4
1,4
1,4
1,4
1,4
1,3
1,3
1,3
1,3
1,3
1,3
1,3
1,3
1,2
1,2
1,2
1,2
1,2
1,2
1,2
1,2
1,2
1,2
1,2
1,3
1,3
1,3
1,3
1,4
1,4
1,4
1,4
1,4
1,4
1,4
1,4
1,4
1,4
1,4
1,3
1,3
1,3
1,3
1,3
1,2
1,2
1,2
1,2
1,2
1,2
1,2
1,2
1,2
1,2
1,2
1,2
1,2
1,2
1,2
1,2
1,3
1,3
1,3
1,3
1,3
1,3
1,3
1,3
1,3
1,3
1,3
2,4
2,4
2,4
2,4
2,5
2,5
2,6
2,6
2,6
2,7
2,7
2,8
2,8
2,8
2,7
2,7
1,7
1,7
1,6
1,6
1,4
1,4
1,4
1,4
1,3
1,3
1,3
1,2
1,2
1,2
1,2
1,2
1,2
1,2
1,2
1,2
1,2
1,2
1,2
1,2
1,2
1,2
1,2
1,2
1,2
1,2
1,2
1,2
1,2
1,2
1,2
1,2
1,2
1,2
1,2
1,2
1,2
1,2
1,2
1,2
1,2
1,2
1,2
1,2
1,2
1,2
1,2
1,2
1,2
1,2
1,2
1,2
1,2
1,2
2,2
2,2
2,2
2,2
2,2
2,2
2,2
2,2
2,2
2,2
3,2
3,2
3,2
3,2
3,2
3,2
3,2
3,2
3,2
2,2
2,2
2,2
2,2
2,2
2,2
2,2
2,2
2,2
2,2
2,2
2,2
2,2
2,2
2,2
2,2
2,2
2,2
2,2
3,3
3,3
4,3
5,4
5,4
7,4
7,4
9,5
9,5
11,5
11,5
14,6
14,6
14,6
14,6
22,8
22,8
26,9
31,10
31,10
35,11
35,11
41,13
41,13
46,14
46,14
52,16
52,16
61,17
61,17
68,18
68,18
78,19
78,19
84,20
84,20
89,21
93,22
93,22
96,22
97,23
97,23
98,24
98,24
97,24
97,24
93,25
93,25
89,25
89,25
85,24
85,24
84,23
83,23
83,23
84,22
84,22
84,21
84,21
87,22
87,22
91,24
91,24
94,26
94,26
94,26
95,29
95,29
93,30
93,30
93,30
93,30
85,32
77,31
77,31
72,29
72,29
67,26
64,24
64,24
64,24
60,23
60,23
55,21
55,21
50,20
50,20
47,21
47,21
43,22
43,22
37,25
35,26
35,26
32,27
32,27
30,28
30,28
30,28
30,28
28,27
28,27
28,21
28,21
27,18
27,18
27,15
27,15
26,11
26,11
27,9
27,9
27,8
27,8
27,8
27,7
27,7
26,8
26,8
26,8
26,8
24,8
22,7
22,7
21,7
21,7
21,7
21,7
18,6
18,6
17,5
17,5
17,5
16,5
16,5
13,4
13,4
11,4
11,4
9,4
9,4
7,3
7,3
4,3
4,3
3,3
3,3
2,3
2,3
2,2
2,2
1,2
1,2
1,2
1,2
1,2
1,2
1,2
1,2
1,2
1,3
1,3
1,3
1,3
1,2
1,2
1,2
1,2
1,2
1,2
1,2
1,2
1,2
1,2
1,2
1,2
1,2
1,2
1,2
1,2
1,2
1,2
1,2
1,2
1,2
1,2
1,2
1,2
1,2
1,2
1,2
1,2
1,2
1,2
1,2
1,2
1,2
1,2
1,2
1,2
1,2
1,2
1,2
1,2
1,2
1,2
1,2
1,2
1,2
1,2
1,2
1,2
1,2
1,2
1,2
1,2
1,2
1,2
1,2
1,2
1,2
1,2
1,2
1,2
1,2
1,2
1,2
1,2
1,2
1,2
1,2
1,2
1,2
1,2
1,2
1,2
1,2
1,2
1,2
1,2
1,2
1,2
1,2
1,2
1,2
1,2
1,2
1,2
1,2
1,2
1,2
1,2
1,2
1,2
1,2
1,2
1,2
1,2
1,2
1,2
1,2
1,2
1,2
1,2
1,2
1,2
1,2
1,2
1,2
1,2
1,2
1,2
1,2
1,2
1,2
1,2
1,2
1,2
1,2
1,2
1,3
1,3
1,2
1,2
1,2
1,2
1,2
1,2
1,2
1,2
1,2
1,2
1,2
1,2
1,2
1,2
1,2
1,2
1,2
1,2
1,2
1,2
1,2
1,2
1,2
1,2
1,2
1,2
1,2
1,2
1,2
1,2
1,2
1,2
1,2
1,2
1,2
1,2
1,2
1,2
1,2
1,2
1,2
1,2
1,2
1,2
1,2
1,2
1,2
1,2
1,2
1,2
1,2
1,2
1,2
1,2
1,2
1,2
1,2
1,2
1,2
1,2
1,2
1,2
1,2
1,2
1,2
1,2
1,2
1,2
1,2
1,2
1,2
1,2
1,2
1,2
1,2
1,2
1,2
1,2
1,2
1,2
1,2
1,2
2,3
2,3
2,3
2,3
3,4
3,4
3,4
3,4
4,5
4,5
5,6
7,7
7,7
8,8
8,8
12,10
12,10
15,13
15,13
17,16
17,16
21,21
21,21
25,30
25,30
28,40
28,40
28,40
28,65
28,86
28,86
27,107
27,107
26,130
26,130
26,153
26,153
26,178
26,178
27,207
27,207
27,229
27,229
27,253
27,253
28,264
28,264
27,264
27,264
28,260
28,258
28,258
28,258
28,258
24,253
23,258
23,258
23,258
22,257
22,257
22,258
22,258
22,255
22,255
21,232
21,232
20,209
19,187
19,187
17,164
17,164
15,135
15,135
14,116
14,116
13,100
13,100
12,87
12,87
11,76
11,69
11,69
10,63
10,63
10,63
9,62
8,61
8,61
7,60
7,60
6,59
6,59
5,57
5,57
4,51
4,51
4,51
4,50
4,50
4,49
4,49
4,48
5,46
5,46
5,45
5,45
6,43
6,43
7,40
7,40
7,40
7,40
10,30
10,30
12,27
15,26
15,26
21,26
21,26
28,28
28,28
38,32
38,32
51,37
51,37
68,41
68,41
81,43
81,43
81,43
130,49
147,52
147,52
165,54
165,54
177,56
177,56
191,61
191,61
196,67
196,67
198,71
198,71
206,78
206,78
214,84
214,84
211,85
211,85
211,83
213,81
213,81
212,78
212,78
206,78
206,78
193,77
193,77
179,80
179,80
163,80
163,80
137,79
137,79
137,79
117,74
117,74
117,74
105,66
105,66
93,59
93,59
87,55
87,55
80,51
80,51
74,50
74,50
68,49
68,49
62,46
62,46
58,45
54,43
50,41
50,41
50,41
45,39
45,39
42,37
42,37
40,36
40,36
38,35
38,35
37,35
34,35
34,35
32,35
32,35
30,35
30,35
29,34
29,34
27,32
27,32
27,30
27,30
26,27
25,22
25,22
25,22
23,18
23,15
23,15
23,15
22,13
20,11
20,11
19,10
19,10
19,10
19,10
17,9
16,8
16,8
16,8
16,8
14,8
14,8
13,8
12,8
12,8
12,7
12,7
11,7
11,7
10,7
10,7
10,7
11,7
11,7
11,7
11,7
10,7
10,7
8,6
8,6
7,6
6,5
6,5
4,5
4,5
3,4
3,4
2,4
2,4
2,4
2,4
1,3
1,3
1,3
1,3
1,3
2,3
2,3
2,3
2,3
2,3
2,2
2,2
2,2
2,2
2,2
2,2
2,2
2,2
2,2
1,2
1,2
1,2
1,2
1,2
1,2
1,2
1,2
1,2
1,2
1,2
1,2
1,2
1,2
1,2
1,2
1,2
1,2
1,3
1,3
1,3
1,3
1,3
1,3
1,3
1,3
1,2
1,2
1,2
1,2
1,2
1,2
1,2
1,2
1,2
1,2
1,2
1,2
1,2
1,2
1,2
2,2
2,2
2,2
2,2
2,2
1,2
1,2
1,2
1,2
1,2
1,2
1,2
1,2
1,2
1,2
2,2
2,2
2,2
2,2
2,2
2,2
2,2
1,2
1,2
1,2
1,2
1,2
1,2
1,2
1,2
1,2
1,2
1,2
1,2
1,2
1,2
1,2
1,2
2,3
2,3
3,5
3,5
4,8
4,11
5,15
5,15
5,15
6,19
6,19
8,25
11,31
14,35
14,35
18,39
18,39
24,41
24,41
32,43
47,44
47,44
61,46
61,46
82,47
82,47
104,50
104,50
129,53
129,53
159,57
159,57
176,57
176,57
183,57
200,55
200,55
208,54
208,54
208,54
208,54
209,49
205,47
205,47
205,47
203,45
201,44
201,44
202,44
202,44
203,45
203,45
199,46
199,46
191,47
191,47
185,48
185,48
178,52
172,55
172,55
169,57
169,57
164,58
164,58
160,58
160,58
159,57
159,57
158,57
158,57
154,56
154,56
148,56
148,56
145,55
143,55
143,55
139,55
139,55
136,54
136,54
140,54
140,54
138,53
138,53
136,50
136,50
137,46
137,46
135,44
135,44
132,44
132,44
132,44
132,44
132,44
126,43
126,43
128,43
129,43
129,43
129,43
130,43
132,43
132,43
132,43
134,41
134,41
125,36
114,33
114,33
104,29
104,29
101,28
101,28
87,25
87,25
83,24
83,24
78,24
78,24
74,25
74,25
66,24
62,23
62,23
59,22
59,22
57,21
56,20
56,20
56,20
53,19
53,19
51,18
51,18
49,16
49,16
48,14
48,14
46,13
44,11
44,11
42,10
42,10
41,11
41,11
39,12
39,12
38,13
38,13
35,16
35,16
31,18
31,18
31,18
22,23
22,23
17,24
17,24
13,23
13,23
10,20
10,20
7,17
7,17
4,13
4,13
3,11
3,11
1,6
1,6
1,6
1,5
1,5
1,4
1,4
1,4
1,4
1,4
1,4
1,4
1,4
1,4
1,4
1,4
1,4
1,4
1,4
1,4
1,3
1,3
1,3
1,3
1,3
1,3
1,3
1,3
1,3
1,3
1,3
1,3
1,3
1,3
1,3
1,3
1,3
1,3
1,3
1,2
1,2
1,2
1,2
1,2
1,2
1,2
1,2
1,2
1,2
1,2
1,2
1,2
1,2
1,2
1,2
1,2
1,2
1,2
1,2
1,2
1,2
1,2
1,2
1,2
1,2
1,2
1,2
1,2
2,2
2,2
1,2
1,2
1,2
1,2
1,3
1,3
1,3
1,3
1,3
1,3
1,3
1,3
1,3
1,3
1,3
1,3
1,3
1,3
1,3
1,3
1,3
1,3
1,3
1,3
1,3
1,3
1,3
2,3
2,3
2,3
2,3
2,3
2,3
2,3
2,3
2,3
1,3
1,3
1,3
1,3
1,3
1,3
1,2
1,2
1,2
1,2
1,2
1,2
1,2
1,2
1,2
1,2
1,2
1,2
1,2
1,2
1,2
1,2
1,2
1,2
1,2
1,2
1,2
1,2
1,2
1,2
1,2
1,2
1,2
1,3
1,3
1,3
1,3
1,3
1,3
2,4
2,4
2,4
2,4
2,4
2,4
2,4
2,4
2,5
2,5
2,5
2,5
2,5
2,6
2,7
2,7
2,7
2,9
2,9
2,12
2,12
3,15
3,20
3,20
3,24
3,24
3,28
3,28
4,33
4,33
4,40
4,40
5,46
5,46
5,49
5,49
5,54
5,54
6,60
6,60
7,70
7,73
7,73
7,78
7,78
8,85
8,85
9,95
9,95
10,105
10,105
11,121
11,121
12,127
12,133
12,133
13,136
13,136
13,144
13,144
14,153
14,153
15,157
15,157
15,163
15,163
16,171
16,171
16,172
16,172
16,172
16,172
13,172
13,172
12,164
12,154
12,154
11,142
11,142
10,129
10,129
9,109
9,109
8,95
8,95
8,86
8,86
8,83
8,83
8,85
8,85
8,90
8,90
8,87
8,87
8,83
8,83
8,83
7,70
6,59
6,59
6,57
6,57
5,50
5,50
5,42
5,42
4,36
4,36
4,36
3,27
3,27
3,25
3,25
3,21
3,21
2,17
2,17
2,14
2,14
2,11
2,11
2,8
2,6
2,6
2,5
2,5
2,5
2,5
4,7
10,10
16,12
21,13
25,13
30,13
30,13
34,13
34,13
39,14
39,14
52,16
52,16
66,19
75,21
75,21
88,23
88,23
100,24
103,24
103,24
103,24
106,25
106,25
105,26
105,26
105,25
101,25
101,25
98,25
98,25
93,25
93,25
88,25
88,25
87,26
87,26
87,26
87,26
87,26
87,26
91,31
91,31
88,34
85,34
85,34
85,34
81,35
77,35
71,35
71,35
71,35
66,32
66,32
62,29
62,29
60,27
60,27
52,21
52,21
51,21
51,21
44,20
39,21
39,21
36,23
36,23
34,25
34,25
33,29
33,29
35,30
35,30
42,30
42,30
51,31
51,31
59,31
59,31
67,30
67,30
76,29
76,29
91,28
91,28
91,28
90,27
90,27
88,26
89,27
89,27
92,30
92,30
96,32
96,32
96,32
96,32
109,36
109,36
109,36
104,36
104,36
91,32
91,32
79,28
79,28
69,24
69,24
61,20
61,20
47,15
40,13
40,13
30,10
30,10
26,9
26,9
23,8
23,8
20,8
20,8
18,8
18,8
14,7
14,7
11,6
10,6
10,6
7,5
7,5
5,4
5,4
4,4
4,4
3,3
3,3
2,3
2,3
2,3
2,3
1,3
1,4
1,4
2,5
2,5
2,6
2,6
2,7
2,7
3,8
3,8
3,8
4,10
4,10
5,10
5,10
5,10
5,10
6,9
6,9
7,9
7,9
7,8
7,8
8,7
8,7
9,6
9,6
9,6
9,6
9,6
9,5
9,5
9,5
12,5
12,5
13,5
13,5
14,5
15,5
15,5
15,5
15,5
15,5
15,5
13,5
13,5
13,5
13,5
12,5
12,5
11,5
11,5
10,5
10,5
10,5
10,6
10,6
10,6
9,6
9,6
9,6
9,6
9,6
9,6
9,6
9,5
9,5
9,5
9,5
9,5
8,5
8,5
7,4
7,4
6,4
6,4
6,4
6,4
5,4
5,4
4,5
4,5
4,5
4,5
4,6
4,7
4,7
4,10
4,10
4,11
4,11
4,14
4,14
4,15
4,15
4,16
4,16
4,16
4,16
3,15
3,15
3,15
3,14
3,14
3,13
3,12
3,12
3,12
2,11
2,11
3,9
3,9
3,8
3,8
3,8
3,8
4,7
6,8
6,8
8,9
8,9
10,10
10,10
13,12
13,12
17,15
17,15
17,15
17,15
30,23
30,23
44,29
44,29
59,33
59,33
78,36
90,38
105,40
105,40
105,40
115,39
115,39
124,38
124,38
130,38
130,38
137,37
137,37
142,36
142,36
147,34
147,34
157,30
157,30
164,30
164,30
170,31
170,31
177,34
177,34
180,37
180,37
181,42
181,42
181,42
187,53
187,53
188,54
188,54
189,57
189,57
187,56
187,56
184,55
175,54
175,54
169,55
169,55
161,58
161,58
151,59
151,59
145,59
145,59
145,59
145,59
139,57
139,57
135,54
136,52
136,52
136,47
136,47
132,44
132,44
130,43
130,43
132,44
132,44
134,45
134,45
139,50
139,50
149,53
149,53
156,57
160,61
160,61
162,66
162,66
165,70
165,70
171,74
171,74
175,77
175,77
171,76
171,76
168,77
168,77
162,75
162,75
162,75
158,70
158,70
157,65
157,65
148,59
148,59
142,55
142,55
134,55
134,55
127,56
127,56
123,58
123,58
119,57
119,57
116,55
116,55
108,51
108,51
108,51
92,44
86,41
86,41
86,41
78,38
78,38
73,35
73,35
71,33
69,30
69,30
68,26
68,26
69,23
69,23
69,23
69,23
73,23
73,23
82,21
82,21
83,20
83,20
79,19
79,19
75,18
68,16
68,16
61,15
61,15
51,13
51,13
39,12
39,12
30,11
30,11
16,11
16,11
16,11
11,10
11,10
8,10
5,9
5,9
3,8
3,8
2,8
2,8
1,7
1,7
1,6
1,6
1,6
1,6
2,6
2,6
2,6
2,6
2,6
2,6
2,6
2,6
2,5
2,5
2,5
2,5
2,5
2,5
2,5
2,5
2,5
2,4
2,4
2,4
2,4
2,4
2,4
1,5
1,5
1,4
1,4
1,4
1,4
1,4
1,4
1,4
1,4
1,4
1,4
1,4
1,4
1,3
1,3
1,3
1,3
1,3
1,3
1,3
1,3
1,3
1,2
1,2
1,2
1,2
1,2
1,2
1,2
1,2
1,2
1,2
1,2
1,2
1,2
1,2
1,2
1,2
1,2
1,2
1,2
1,2
1,2
1,2
1,2
1,2
1,2
1,2
1,2
1,2
1,2
1,2
1,2
1,2
1,2
1,2
1,2
1,2
1,2
1,2
1,2
1,2
1,2
1,2
1,2
1,2
1,2
1,2
1,2
1,2
1,2
1,3
1,3
1,3
1,2
1,2
1,2
1,2
1,2
1,2
1,2
1,2
1,2
1,2
1,2
1,2
1,2
1,2
1,2
1,2
1,2
1,2
1,2
1,2
1,2
1,2
1,2
1,2
1,2
1,2
1,2
1,2
1,2
1,2
1,2
1,2
1,2
1,2
1,2
1,2
1,2
1,2
1,2
1,2
1,2
1,2
1,2
1,2
1,2
1,2
1,2
1,2
1,2
1,2
1,2
1,2
1,2
1,2
1,2
1,2
1,2
1,2
1,2
1,2
1,2
1,2
1,2
1,2
1,3
1,3
1,3
1,3
1,3
1,2
1,2
1,2
1,2
1,2
1,2
1,2
1,2
1,2
1,2
1,2
1,2
1,2
1,2
1,2
1,2
1,2
1,2
1,2
1,2
1,2
1,2
1,2
1,2
1,2
1,2
1,2
1,2
1,2
1,2
1,2
1,2
1,2
1,2
1,2
1,2
1,2
1,2
1,2
1,2
1,2
1,2
1,2
1,2
1,2
1,2
1,2
1,2
1,2
1,2
1,2
1,2
1,2
1,2
1,2
1,2
1,2
1,2
1,2
1,2
1,2
1,2
1,2
1,2
1,2
1,2
1,2
1,2
1,2
1,2
1,2
1,2
1,2
1,3
1,3
1,3
1,3
1,3
1,3
1,3
1,3
1,3
1,2
1,3
1,3
1,3
1,3
1,2
1,2
1,2
1,2
1,2
1,2
1,2
1,2
1,2
1,2
1,2
1,2
1,2
1,2
1,2
1,2
1,2
1,2
1,2
1,2
1,2
1,2
1,2
1,2
1,2
1,2
1,2
1,2
1,2
1,2
1,2
1,2
1,2
1,2
1,2
1,2
1,2
1,2
1,2
1,2
1,2
1,2
1,2
1,2
1,2
1,2
1,2
1,2
1,2
1,2
1,2
1,2
1,2
1,2
1,2
1,2
1,2
1,2
1,2
1,2
1,2
1,2
1,2
1,2
1,2
1,2
1,3
1,3
1,3
1,3
1,2
1,2
1,2
1,2
1,2
1,2
1,2
1,2
1,2
1,2
1,2
1,2
1,2
1,2
1,2
1,2
1,2
1,2
1,2
1,2
1,2
1,2
1,2
1,2
1,2
1,2
1,2
1,2
1,2
1,2
1,2
1,2
1,2
1,2
1,2
1,2
1,2
1,2
1,2
1,2
1,2
1,2
1,2
1,2
1,2
1,2
1,2
1,2
1,2
1,2
1,2
1,2
1,2
1,2
1,2
1,2
1,2
1,2
1,2
1,2
1,2
1,2
1,2
1,2
1,2
1,2
1,2
1,2
1,2
1,2
1,2
1,2
1,2
1,2
1,2
1,2
1,2
1,2
1,2
1,2
1,2
1,2
1,2
1,2
1,2
1,2
1,3
1,3
1,3
1,3
1,2
1,2
1,2
1,2
1,2
1,2
1,2
1,2
1,2
1,2
1,2
1,2
1,2
1,2
1,2
1,2
1,2
1,2
1,2
1,2
1,2
1,2
1,2
1,2
1,2
1,2
1,2
1,2
1,2
1,2
1,2
1,2
1,2
1,2
1,2
1,2
1,2
1,2
1,2
1,2
1,2
1,2
1,2
1,2
1,2
1,2
1,2
1,2
1,2
1,2
1,2
1,2
1,2
1,2
1,2
1,2
1,2
1,2
1,2
1,2
1,2
1,2
1,2
1,2
1,2
2,2
2,2
1,2
1,2
1,2
1,2
1,2
1,2
1,2
1,2
1,2
1,2
1,2
1,2
1,2
1,2
1,2
1,2
1,2
1,2
1,2
1,2
1,2
1,2
1,2
1,2
1,2
1,2
1,2
1,2
1,2
1,2
1,2
1,3
1,3
1,3
1,3
1,3
1,3
1,2
1,2
1,2
1,2
1,2
1,2
1,2
1,2
1,2
1,2
1,2
1,2
1,2
1,2
1,2
1,2
1,2
1,2
1,2
1,2
1,2
1,2
1,2
1,2
1,2
1,2
1,2
1,2
1,2
1,2
1,2
1,2
1,2
1,2
1,2
1,2
1,2
1,2
1,2
1,2
1,2
1,2
1,2
1,2
1,2
1,2
1,2
1,2
1,2
1,2
1,2
1,2
1,2
1,2
1,2
1,2
1,2
1,2
1,2
1,2
1,2
1,2
1,2
1,2
1,2
1,2
1,2
1,2
1,2
1,2
1,2
1,2
1,2
1,2
1,2
2,2
2,2
2,3
2,3
2,3
2,3
2,4
2,4
2,5
3,7
3,7
3,9
4,16
4,16
4,16
5,22
5,22
6,28
6,28
7,33
8,36
8,36
10,39
10,39
12,42
12,42
15,45
15,45
20,46
20,46
26,46
26,46
39,47
39,47
53,47
73,48
73,48
94,51
94,51
94,51
94,51
159,55
159,55
186,54
186,54
204,51
204,51
212,50
212,50
219,50
219,50
220,52
217,52
217,52
208,53
198,52
198,52
198,52
195,52
195,52
186,52
178,53
178,53
166,52
166,52
159,53
159,53
158,54
158,54
153,55
153,55
152,55
152,55
149,54
149,54
143,51
143,51
135,46
127,41
127,41
121,37
121,37
115,35
115,35
104,33
104,33
95,33
95,33
87,33
87,33
81,34
81,34
74,35
74,35
67,37
63,38
63,38
60,38
60,38
60,38
60,38
55,36
55,36
52,35
52,35
51,33
51,33
49,29
49,29
49,26
49,26
52,20
52,20
52,20
53,20
51,21
51,21
47,22
47,22
43,24
43,24
37,26
37,26
35,27
35,27
27,28
21,26
21,26
16,23
16,23
12,19
12,19
8,15
8,15
5,10
5,10
3,8
3,8
2,6
2,6
1,4
1,4
1,4
1,3
1,3
1,3
1,3
1,2
1,3
1,3
1,3
1,3
2,3
2,3
2,3
2,3
2,3
2,3
2,2
2,2
2,2
2,2
2,2
2,2
2,2
2,2
2,2
1,2
1,2
1,2
1,2
1,2
1,2
1,2
1,2
1,3
1,3
1,3
1,3
1,3
1,3
1,3
1,3
1,3
1,3
1,3
1,3
1,3
1,3
1,2
1,2
1,2
1,2
1,2
1,2
1,2
1,2
1,2
1,2
1,2
1,2
1,2
1,2
1,2
1,2
1,2
1,2
1,2
1,2
1,2
1,2
1,2
1,2
1,2
1,2
1,2
1,2
1,2
1,2
1,2
1,2
1,2
1,2
1,2
1,2
1,2
1,2
1,2
1,2
1,2
1,2
1,2
1,2
1,2
1,2
2,2
2,2
2,2
2,2
2,2
2,2
2,2
2,2
2,2
2,2
2,2
1,2
1,2
1,3
1,3
1,3
1,3
1,2
1,2
1,2
1,3
1,3
1,3
1,3
1,3
1,3
1,2
1,2
1,2
1,2
1,2
1,2
1,2
1,2
1,2
1,2
1,2
1,2
1,2
1,2
1,2
1,2
1,2
1,2
1,2
1,2
1,2
1,2
1,2
1,2
1,2
1,2
1,2
1,2
1,2
1,2
1,2
1,2
1,2
1,2
1,2
1,2
1,2
1,2
1,2
1,2
1,2
1,2
1,2
1,2
1,2
1,2
1,2
1,2
1,2
1,2
1,2
2,2
2,2
1,2
1,2
1,2
1,2
1,2
1,2
1,2
1,2
2,2
2,2
2,2
2,2
3,2
3,2
3,2
3,2
3,2
3,2
2,2
2,2
2,2
2,2
2,2
2,2
2,2
2,2
2,2
2,3
2,3
2,3
2,3
2,3
2,3
1,2
1,2
1,2
1,2
1,2
1,2
1,2
1,2
1,2
1,2
1,2
1,2
1,2
1,2
1,2
1,2
1,2
1,2
1,2
1,2
1,2
1,2
1,2
1,2
1,2
1,2
1,2
1,2
1,2
1,2
1,2
1,2
1,2
1,2
1,2
1,2
1,2
1,2
1,2
1,2
1,2
1,2
1,2
1,2
1,2
1,2
1,2
1,2
1,2
1,2
1,2
1,2
1,2
1,2
1,2
1,2
1,2
1,2
1,2
1,2
1,2
1,2
1,2
1,2
1,2
1,2
1,2
1,2
1,2
1,2
1,2
1,2
1,2
1,2
1,2
1,2
1,2
1,2
1,2
1,2
1,2
1,2
1,2
1,2
1,2
1,2
1,2
1,2
1,2
1,2
1,2
1,2
1,2
1,2
1,2
1,2
1,2
1,2
1,2
1,2
1,2
1,2
1,2
1,2
1,2
1,2
1,2
1,2
1,2
1,2
1,2
1,2
1,2
1,2
1,2
1,2
1,2
1,2
1,2
1,2
1,2
1,2
1,2
1,2
1,2
1,2
1,2
1,2
1,3
1,3
1,2
1,2
1,2
1,2
1,2
1,2
1,2
1,2
1,2
1,2
1,2
1,2
1,2
1,2
1,2
1,2
1,2
1,2
1,2
1,2
1,2
1,2
1,2
1,2
1,2
1,2
1,2
1,2
1,2
1,2
1,2
1,2
1,2
1,2
1,2
1,2
1,2
1,2
1,2
1,2
1,2
1,2
1,2
1,2
1,2
1,2
1,2
1,2
1,2
1,2
1,2
1,2
1,2
1,2
1,2
1,2
1,2
1,2
1,2
1,2
1,2
1,2
1,2
1,2
1,2
1,2
1,2
1,2
1,2
1,2
1,2
1,2
1,2
1,2
1,2
1,2
1,2
1,2
1,2
1,2
1,2
1,2
1,2
1,2
1,2
1,2
1,2
1,2
1,2
1,2
1,2
1,2
1,2
1,2
1,2
1,2
1,2
1,2
1,2
1,2
1,2
1,2
1,2
1,2
1,2
1,2
1,2
1,2
1,2
1,2
1,2
1,2
1,2
1,2
1,2
1,2
1,2
1,2
1,2
1,2
1,2
1,2
1,2
1,2
1,2
1,2
1,2
1,2
1,2
1,2
1,2
1,2
1,2
1,2
1,2
1,2
1,2
1,2
1,2
1,2
1,2
1,2
1,2
1,2
1,2
1,2
1,2
1,2
1,2
1,2
1,2
1,2
1,2
1,2
1,2
1,2
1,2
1,2
1,2
1,2
1,2
1,2
1,2
1,2
1,2
1,2
1,2
1,2
1,2
1,2
1,2
1,2
1,2
1,2
1,2
1,2
1,2
1,2
1,2
1,2
1,2
1,2
1,2
1,2
1,2
1,2
1,2
1,2
1,2
1,2
1,2
1,2
1,2
1,2
1,2
1,2
1,2
1,2
1,2
1,2
1,2
1,2
1,2
1,2
1,2
1,2
1,2
1,2
1,2
1,2
1,2
1,2
1,2
1,2
1,2
1,2
1,2
1,2
1,2
1,2
1,2
1,2
1,2
1,2
1,2
1,2
1,2
1,2
1,2
1,2
1,2
1,2
1,2
1,2
1,2
1,2
1,2
1,2
1,2
1,2
1,2
1,2
1,2
1,2
1,2
2,2
2,2
2,2
2,2
3,3
3,3
3,3
3,3
4,4
4,4
6,6
6,6
6,6
9,10
9,10
12,13
12,13
19,15
19,15
25,16
25,16
31,16
31,16
31,16
43,16
48,16
48,16
57,17
65,18
65,18
65,18
76,19
76,19
88,21
88,21
97,22
97,22
107,24
112,26
112,26
115,30
115,30
115,32
115,32
112,33
107,33
107,33
107,33
102,34
102,34
93,34
87,32
87,32
81,29
81,29
77,27
77,27
76,26
76,26
74,26
74,26
74,26
74,26
74,28
74,28
73,29
73,29
77,31
77,31
77,31
77,31
88,33
92,34
92,34
94,33
94,33
96,31
96,31
95,29
95,29
96,27
96,27
94,25
94,25
88,22
88,22
81,21
74,19
74,19
69,17
69,17
63,16
63,16
58,15
58,15
57,15
57,15
57,14
57,14
54,14
54,14
48,12
48,12
44,11
40,9
40,9
36,8
36,8
31,7
31,7
26,6
26,6
21,6
21,6
17,6
17,6
13,6
9,6
9,6
7,7
7,7
5,6
5,6
4,6
4,6
3,5
3,5
3,5
3,5
3,5
1,3
1,3
1,3
1,3
2,2
2,2
2,2
2,2
2,2
2,2
2,2
2,2
2,2
2,2
2,2
2,2
2,2
2,2
2,2
2,2
2,2
2,2
1,2
1,2
1,2
1,2
1,2
1,2
1,2
1,2
1,2
1,2
1,2
1,2
1,2
1,2
1,2
1,2
1,2
1,2
1,2
1,2
1,2
1,2
1,2
1,2
1,2
1,2
1,2
1,2
1,2
1,2
1,2
1,2
1,2
1,2
1,2
1,2
1,2
1,2
1,2
1,2
1,2
1,2
1,2
1,2
1,2
1,2
1,2
1,2
1,2
1,2
1,2
1,2
1,2
1,2
1,2
1,2
1,2
1,2
1,2
1,2
1,2
1,2
1,2
1,2
1,2
1,2
1,2
1,2
1,2
1,2
1,2
1,2
1,2
1,2
1,2
1,2
1,2
1,2
1,2
1,2
1,2
1,2
1,2
1,2
1,2
1,2
1,2
1,2
1,2
1,2
1,2
1,2
1,2
1,2
1,2
1,2
1,2
1,2
1,2
1,2
1,2
1,2
1,2
1,2
1,2
1,2
1,2
1,2
1,2
1,2
1,2
1,2
1,2
1,2
1,2
1,2
1,2
1,2
1,2
1,2
1,2
1,2
1,2
1,2
1,2
1,2
1,2
1,2
1,2
1,2
1,2
1,2
1,2
1,2
1,2
1,2
1,2
1,2
1,2
1,2
1,2
1,2
1,2
1,2
1,2
1,2
1,2
1,2
1,2
1,2
1,2
1,2
1,2
1,2
1,2
1,2
1,2
1,2
1,2
1,2
1,2
1,2
1,2
1,2
1,2
1,2
1,2
1,2
1,2
1,2
1,2
1,2
1,2
1,2
1,2
1,2
1,2
1,2
1,2
1,2
1,2
1,2
1,2
1,2
1,2
1,2
1,2
1,2
1,2
1,2
1,2
1,2
1,2
1,2
1,2
1,2
1,2
1,2
1,2
1,2
1,2
1,2
1,2
1,2
1,2
1,2
1,2
1,2
1,2
1,2
1,2
1,2
1,2
1,2
1,2
1,2
1,2
1,2
1,2
1,2
1,2
1,2
1,2
1,2
1,2
2,2
1,2
1,2
1,2
1,2
1,2
1,2
1,2
1,2
1,2
1,2
1,2
1,2
1,2
1,2
1,2
1,2
1,2
1,2
1,2
1,2
1,2
1,2
1,2
1,2
1,2
1,2
1,2
1,2
1,2
1,2
1,2
1,2
1,2
1,2
1,2
1,2
1,2
1,2
1,2
1,2
1,2
1,2
1,2
1,2
1,2
1,2
1,2
1,2
1,2
1,2
1,2
1,2
1,2
1,2
1,2
1,2
1,2
1,2
1,2
1,2
1,3
1,3
1,3
1,3
1,3
1,3
2,3
2,3
2,3
2,2
2,2
2,2
2,2
2,2
2,2
2,2
2,2
2,2
2,2
2,2
1,2
1,2
1,2
1,2
1,2
1,2
1,2
1,2
1,2
1,2
1,2
1,2
1,2
1,2
1,2
1,2
1,2
1,2
1,2
1,2
1,2
1,2
1,2
1,2
1,2
1,2
1,2
1,2
1,2
1,2
1,2
1,2
1,2
1,2
1,2
1,2
1,2
1,2
1,2
1,2
1,2
1,2
1,2
1,2
1,2
1,2
1,2
1,2
1,2
1,2
1,2
1,2
1,2
1,2
1,2
1,2
1,2
1,2
1,2
1,2
1,2
1,2
1,2
1,2
1,2
1,2
1,2
1,2
1,2
1,2
1,2
1,2
1,2
1,2
1,2
1,2
1,2
1,2
1,2
1,2
1,2
1,2
1,2
1,2
1,2
1,2
1,2
1,2
1,2
1,2
1,2
1,2
1,2
1,2
1,2
1,2
1,2
1,2
1,2
1,2
1,2
1,2
1,2
1,2
1,2
1,2
1,2
1,2
1,2
1,2
1,2
1,2
1,2
1,2
1,2
1,2
1,2
1,2
1,2
1,2
1,2
1,2
1,2
1,2
1,2
1,2
1,2
1,2
1,2
1,2
1,2
1,2
1,2
1,2
1,2
1,2
1,2
1,2
1,2
1,2
1,2
1,2
1,2
1,2
1,2
1,2
1,2
1,2
1,2
1,2
1,2
1,3
1,3
1,2
1,2
1,2
1,2
1,2
1,2
1,2
1,2
1,2
1,2
1,2
1,2
1,2
1,2
1,2
1,2
1,2
1,2
1,2
1,2
1,2
1,2
1,2
1,2
1,2
1,2
1,2
1,2
1,2
1,2
1,2
1,2
1,2
1,2
1,2
2,2
2,2
2,2
2,2
2,2
2,2
2,2
1,2
1,2
1,2
1,2
1,2
1,2
1,2
1,2
1,2
1,2
1,2
1,2
1,2
1,2
1,2
1,2
1,2
2,2
2,2
2,2
2,2
2,2
2,2
2,2
2,2
2,2
2,2
2,2
2,2
2,2
2,2
1,2
1,2
1,2
1,2
1,2
1,2
1,2
1,2
1,2
1,2
1,2
1,2
1,2
1,2
1,2
1,3
1,3
1,3
1,3
1,3
1,3
1,3
1,3
1,3
1,3
1,3
1,2
1,2
1,2
1,2
1,2
1,2
1,2
1,2
1,2
1,2
1,2
1,2
1,2
1,2
1,2
1,2
1,2
1,2
1,2
1,2
1,2
1,2
1,2
1,2
1,2
1,2
1,2
1,2
1,2
1,2
1,2
1,2
1,2
1,2
1,2
1,2
1,2
1,2
1,2
1,2
1,2
1,2
1,2
1,2
3,2
3,2
5,2
5,2
7,3
7,3
11,4
11,4
14,4
14,4
21,6
21,6
21,6
23,6
23,6
26,6
27,6
27,6
29,7
29,7
30,7
30,7
30,7
30,7
30,7
30,7
30,7
30,7
29,7
29,7
25,6
25,6
25,6
26,7
26,7
27,7
27,7
27,7
27,7
27,7
30,9
30,9
30,9
33,10
34,10
34,10
34,10
34,10
34,10
34,10
34,9
34,9
32,9
31,8
31,8
31,8
31,8
27,7
27,7
27,7
27,7
29,8
29,8
31,8
34,8
34,8
39,9
41,9
41,9
41,9
41,9
41,9
41,10
40,9
40,9
39,10
37,10
37,10
37,10
33,9
33,9
33,9
33,9
33,9
33,9
33,9
30,8
30,8
21,6
19,5
19,5
18,4
18,4
16,4
16,4
15,4
15,4
16,3
16,3
14,3
12,3
9,3
9,3
9,3
7,3
7,3
5,3
4,2
4,2
3,2
3,2
3,2
3,2
2,2
2,2
1,2
1,2
1,2
1,2
1,2
1,2
1,2
1,2
1,2
1,2
1,2
1,2
1,2
2,2
2,2
2,2
2,2
2,2
2,2
2,2
2,2
2,2
2,2
2,2
2,2
2,2
2,2
2,2
2,2
1,2
1,2
1,2
1,2
1,2
1,2
1,2
1,2
1,2
1,2
1,2
1,2
1,2
1,2
1,2
1,2
1,2
1,3
1,3
1,3
1,3
1,3
1,2
1,2
1,2
1,2
1,2
1,2
1,2
1,2
1,2
1,2
1,2
1,2
1,2
1,2
1,2
1,2
1,2
1,2
1,2
1,2
1,2
1,2
1,2
1,2
1,2
1,2
1,2
1,2
1,2
1,2
1,2
1,2
1,2
1,2
1,2
1,2
1,2
1,2
1,2
1,2
1,2
1,2
1,2
1,2
1,2
1,2
1,2
1,2
1,2
1,2
1,2
1,2
1,2
1,2
1,2
1,2
1,2
1,2
1,2
1,2
1,2
1,2
1,2
1,2
1,2
1,2
1,2
1,2
1,2
1,2
1,2
1,2
1,2
1,2
1,2
1,2
1,2
1,2
1,2
1,2
1,2
1,2
1,2
1,2
1,2
1,2
1,2
1,2
1,2
1,2
1,2
1,2
1,2
1,2
1,2
1,2
1,2
1,2
1,2
1,2
1,2
1,2
1,2
1,2
1,2
1,2
1,2
1,2
1,3
1,3
1,2
1,2
1,2
1,2
1,2
1,2
1,2
1,2
1,2
1,2
1,2
1,2
1,2
1,2
1,2
1,2
1,2
1,2
1,2
1,2
1,2
1,2
1,2
1,2
1,2
1,2
1,2
1,2
1,2
1,2
1,2
1,2
1,2
1,2
1,2
1,2
1,2
1,2
1,2
1,2
1,2
1,2
1,2
1,2
1,2
1,2
1,2
1,2
1,2
1,2
1,2
1,2
1,2
1,2
1,2
1,2
1,2
1,2
1,2
1,2
1,2
1,2
1,2
1,2
1,2
1,2
1,2
1,2
1,2
1,2
1,2
1,2
1,2
1,2
1,2
1,2
1,2
1,2
1,2
1,2
1,2
1,2
1,2
1,2
1,2
1,2
1,2
1,2
1,2
1,2
1,2
1,2
1,2
1,2
1,2
1,2
1,2
1,2
1,2
1,2
1,2
1,2
1,2
1,2
1,2
1,2
1,2
1,2
1,2
1,2
1,2
1,2
1,2
1,2
1,2
1,2
1,2
1,2
1,2
1,2
2,2
2,2
2,2
2,2
2,2
2,2
2,2
2,2
2,2
2,2
1,2
1,2
1,2
1,2
1,2
1,2
1,2
1,2
1,2
1,2
1,2
1,2
1,2
1,2
1,2
1,2
1,2
1,2
1,2
1,2
1,2
1,2
1,2
1,2
1,2
1,2
1,2
1,2
1,2
1,2
1,2
1,2
1,2
1,2
1,2
1,2
1,2
1,2
1,2
1,2
1,2
1,2
1,2
1,2
1,2
1,2
1,2
1,2
1,2
2,2
2,2
1,2
1,2
1,2
1,2
1,2
1,2
1,2
1,2
1,2
1,2
1,2
1,2
1,2
1,2
1,2
1,2
1,2
1,2
1,2
1,2
1,2
1,2
1,2
1,2
1,2
1,2
1,2
1,2
1,2
1,2
1,2
1,2
1,2
1,2
1,2
1,2
1,2
1,2
1,2
1,2
1,2
1,2
1,2
1,2
1,2
1,2
1,2
1,2
1,2
1,2
1,2
1,2
1,2
1,2
1,2
1,2
1,2
1,2
1,2
1,2
1,2
1,2
1,2
1,2
1,2
1,2
1,2
1,2
1,2
1,2
1,2
1,2
1,2
1,2
1,2
1,2
1,2
1,2
1,2
1,2
1,2
1,2
1,2
1,2
1,2
1,2
1,2
1,2
1,2
1,2
1,2
1,2
1,2
1,2
1,2
1,2
1,2
1,2
1,2
1,2
1,2
1,2
1,2
1,2
1,2
1,2
1,2
1,2
1,2
1,2
1,2
2,2
2,2
2,2
2,2
2,2
2,2
2,2
1,2
1,2
1,2
1,2
1,2
1,2
1,2
1,2
1,2
1,2
1,2
1,2
1,2
1,2
1,2
1,2
1,2
1,2
1,2
1,2
1,2
1,2
1,2
1,2
1,2
1,2
1,2
1,2
1,2
1,2
1,2
1,2
1,2
1,2
1,2
1,2
1,2
1,2
1,2
1,2
1,2
1,2
1,2
1,2
1,2
1,2
1,2
1,2
1,2
1,2
1,2
1,2
1,2
2,2
2,2
2,2
2,2
2,2
2,2
1,2
1,2
1,2
1,2
1,2
1,2
1,2
1,2
1,2
1,2
1,2
1,2
1,2
1,2
1,2
1,2
1,2
1,2
1,2
1,2
1,2
1,2
1,2
1,2
1,2
1,2
1,2
1,2
1,2
1,2
1,2
1,2
1,2
1,2
1,2
1,2
1,2
1,2
1,2
1,2
1,2
1,2
1,2
1,2
1,2
1,2
1,2
1,2
1,2
1,2
1,2
1,2
1,2
1,2
1,2
1,2
1,2
1,2
1,2
1,2
1,2
1,2
1,2
1,2
1,2
1,2
1,2
1,2
1,2
1,2
1,2
2,2
2,2
2,2
2,2
1,2
1,2
1,2
1,2
1,2
1,2
1,2
1,2
1,2
1,2
1,2
1,2
1,2
1,2
1,2
1,2
1,2
1,2
1,2
1,2
1,2
1,2
1,2
1,2
1,2
1,2
1,2
1,2
1,2
1,2
1,2
1,2
1,2
1,2
1,2
1,2
1,2
1,2
1,2
1,2
1,2
1,2
1,2
1,2
1,2
1,2
1,2
1,2
1,2
1,2
1,2
1,2
1,2
1,2
1,2
1,2
1,2
1,2
1,2
1,2
1,2
1,2
1,2
1,2
1,2
1,2
1,2
1,2
1,2
1,2
1,2
1,2
1,2
1,2
1,2
1,2
1,2
1,2
1,2
1,2
1,2
1,2
1,2
1,2
1,2
1,2
1,2
1,2
1,2
1,2
1,2
1,2
1,2
1,2
1,2
1,2
1,2
1,2
1,2
1,2
1,2
1,2
1,2
1,2
1,2
1,2
1,2
1,2
1,2
1,2
1,2
1,2
1,2
1,2
1,2
1,2
1,2
1,2
1,2
1,2
1,2
1,2
1,2
1,2
1,2
1,2
1,2
1,2
1,2
1,2
1,2
1,2
1,2
1,2
1,2
1,2
1,2
1,2
1,2
1,2
1,2
1,2
1,2
1,2
1,2
1,2
1,2
1,2
1,2
1,2
1,2
1,2
1,2
1,2
1,2
1,2
1,2
1,2
1,2
1,2
1,2
1,2
1,2
1,2
1,2
1,2
1,2
1,2
1,2
1,2
1,2
1,2
1,2
1,2
1,2
1,2
1,2
1,2
1,2
1,2
1,2
1,2
1,2
1,2
1,2
1,2
1,2
1,2
1,2
1,2
1,2
1,2
1,2
1,2
1,2
1,2
1,2
1,2
1,2
1,2
1,2
1,2
1,2
1,2
1,2
1,2
1,2
1,2
1,2
1,2
1,2
1,2
1,2
1,2
1,2
1,2
1,2
1,2
1,2
1,2
1,2
1,2
1,2
1,2
1,2
1,2
1,2
1,2
1,2
1,2
1,2
1,2
1,2
1,2
1,2
1,2
1,2
1,2
1,2
1,2
1,2
1,2
1,2
1,2
1,2
1,2
1,2
1,2
1,2
1,2
1,2
1,2
1,2
1,2
1,2
1,2
1,2
1,2
1,2
1,2
1,2
1,2
1,2
1,2
1,2
1,2
1,2
1,2
1,2
1,2
1,2
1,2
1,2
1,2
1,2
1,2
1,2
1,2
1,2
1,2
1,2
1,2
1,2
1,2
1,2
1,2
1,2
1,2
1,2
1,2
1,2
1,2
1,2
1,2
1,2
1,2
1,2
1,2
1,2
1,2
1,2
1,2
1,2
1,2
1,2
1,2
1,2
1,2
1,2
1,2
1,2
1,2
1,2
1,2
1,2
1,2
1,2
1,2
1,2
1,2
1,2
1,2
1,2
1,2
1,2
1,2
1,2
1,2
1,2
1,2
1,2
1,2
1,2
1,2
1,2
1,2
1,2
1,2
1,2
1,2
1,2
1,2
1,2
1,2
1,2
1,2
1,2
1,2
1,2
1,2
1,2
1,2
1,2
1,2
1,2
1,2
1,2
1,2
1,2
1,2
1,2
1,2
1,2
1,2
1,2
1,2
1,2
1,2
1,2
1,2
1,2
1,2
1,2
1,2
1,2
1,2
1,2
1,2
1,2
1,2
1,2
1,2
1,2
1,2
1,2
1,2
1,2
1,2
1,2
1,2
1,2
1,2
1,2
1,2
1,2
1,2
1,2
1,2
1,2
1,2
1,2
1,2
1,2
1,2
1,2
1,2
1,2
1,2
1,2
1,2
1,2
1,2
1,2
1,2
1,2
1,2
1,2
1,2
1,2
1,2
1,2
1,2
1,2
1,2
1,2
1,2
1,2
1,2
1,2
1,2
1,2
1,2
1,2
1,2
1,2
1,2
1,2
1,2
1,2
1,2
1,2
1,2
1,2
1,2
1,2
1,2
1,2
1,2
1,2
1,2
1,2
1,2
1,2
1,2
1,2
1,2
1,2
1,2
1,2
1,2
1,2
1,2
1,2
1,2
1,2
1,2
1,2
1,2
1,2
1,2
1,2
1,2
1,2
1,2
1,2
1,2
1,2
1,2
1,2
1,2
1,2
1,2
1,2
1,2
1,2
1,2
1,2
1,2
1,2
1,2
1,2
1,2
1,2
1,2
1,2
1,2
1,2
1,2
1,2
1,2
1,2
1,2
1,2
1,2
1,2
1,2
1,2
1,2
1,2
1,2
1,2
1,2
1,2
1,2
1,2
1,2
1,2
1,2
1,2
1,2
1,2
1,2
1,2
1,2
1,2
1,2
1,2
1,2
1,2
1,2
1,2
1,2
1,2
1,2
1,2
1,2
1,2
1,2
1,2
1,2
1,2
1,2
1,2
1,2
1,2
1,2
1,2
1,2
1,2
1,2
1,2
1,2
1,2
1,2
1,2
1,2
1,2
1,2
1,2
1,2
1,2
1,2
1,2
1,2
1,3
1,3
1,3
1,3
1,3
1,3
1,2
1,2
1,2
1,2
1,2
1,2
1,2
1,2
1,2
1,2
1,2
1,2
1,2
1,2
1,2
1,2
1,2
1,2
1,2
1,2
1,2
1,2
1,2
1,2
1,2
1,2
1,2
1,2
1,2
1,2
1,2
1,2
1,2
1,2
1,2
1,2
1,2
1,2
1,2
1,2
1,2
1,2
1,2
1,2
1,2
1,2
1,2
1,2
1,2
1,2
1,2
1,2
2,2
1,2
1,2
1,2
1,2
1,2
1,2
1,2
1,2
1,2
1,2
1,2
1,2
1,2
1,2
1,2
1,3
1,3
1,3
1,3
1,3
1,3
1,3
1,3
1,3
1,2
1,2
1,2
1,2
1,2
1,2
1,2
1,2
1,2
1,2
1,2
1,2
1,2
1,2
1,2
1,2
1,2
1,2
1,2
1,2
1,2
1,2
1,2
1,2
1,2
1,2
1,2
1,2
1,2
1,2
1,2
1,2
1,2
1,2
1,2
1,2
1,2
1,2
1,2
1,2
1,2
1,2
1,2
1,2
1,2
1,2
1,2
1,2
1,2
1,2
1,2
1,2
1,2
1,2
1,2
1,2
1,2
1,2
1,2
1,2
1,2
1,2
1,2
1,2
1,2
1,2
1,2
1,2
1,2
1,2
1,2
1,2
1,2
1,2
1,2
1,2
1,2
1,2
1,2
1,2
1,2
1,2
1,2
1,2
1,2
1,2
1,2
1,2
1,2
1,2
1,2
1,2
1,2
1,2
1,2
1,2
1,2
1,2
1,2
1,2
1,2
1,2
1,2
1,2
1,2
1,2
1,2
1,2
1,2
1,2
1,2
1,2
1,2
1,2
1,2
1,2
1,2
1,2
1,2
1,2
1,2
1,2
1,2
1,2
1,2
1,2
1,2
1,2
1,2
1,2
1,2
1,2
1,2
1,2
1,2
1,2
1,2
2,2
2,2
2,2
2,2
2,2
2,2
2,2
2,2
2,2
2,2
2,2
2,2
2,2
3,3
3,3
3,3
2,3
2,3
2,3
2,3
2,3
2,4
2,4
2,5
2,5
2,7
2,7
2,7
2,11
2,11
3,14
3,19
3,19
3,19
3,19
3,26
3,26
4,37
4,37
4,39
4,39
4,39
4,40
4,40
4,41
4,41
4,42
4,42
4,42
4,42
4,43
4,42
4,42
5,39
5,39
5,35
5,35
5,32
5,32
5,28
5,28
5,25
5,22
5,22
5,17
5,17
4,14
4,14
3,10
3,10
3,8
3,8
2,6
2,6
2,5
2,5
2,5
2,5
2,4
2,4
2,3
1,3
1,3
1,3
1,3
1,3
1,3
1,3
1,3
1,3
1,3
1,3
1,4
1,4
1,4
1,4
1,4
1,4
1,4
1,4
1,4
1,4
1,4
1,4
1,4
1,4
1,4
1,3
1,3
1,3
1,3
1,3
1,3
1,3
1,3
1,3
1,3
1,3
1,3
1,3
1,3
1,3
1,3
1,3
1,3
1,3
1,2
1,2
1,2
1,2
1,2
1,2
1,2
1,2
1,2
1,2
1,2
1,2
1,3
1,3
1,3
1,3
1,3
1,3
1,3
1,3
1,3
1,3
1,2
1,2
1,2
1,2
1,2
1,2
1,2
1,2
1,2
1,2
1,2
1,2
1,2
1,2
1,2
1,2
1,2
1,2
1,2
1,2
1,2
1,2
1,2
1,2
1,2
1,2
1,2
1,2
1,2
1,2
1,2
1,2
1,2
1,2
1,2
1,2
1,2
1,2
1,2
1,2
1,2
1,2
1,2
1,2
1,2
1,2
1,2
1,2
1,2
1,2
1,2
1,2
1,2
1,2
1,2
1,2
1,2
1,2
1,2
1,2
1,2
1,2
1,2
1,2
1,2
1,2
1,2
1,2
1,2
1,2
1,2
1,2
1,2
1,2
1,2
1,2
1,2
1,2
1,2
1,2
1,2
1,2
1,2
1,2
1,2
1,2
1,2
1,2
1,2
1,2
1,2
1,2
1,2
1,2
1,2
1,2
1,2
1,2
1,2
1,2
1,2
1,2
1,2
1,2
1,2
1,2
1,2
1,2
1,2
1,2
1,2
1,2
1,2
1,2
1,2
1,2
1,2
1,2
1,2
1,2
1,2
1,2
1,2
1,2
1,2
1,2
1,2
1,2
1,2
1,2
1,2
1,2
1,2
1,2
1,2
1,2
1,2
1,2
1,2
1,2
1,2
1,2
1,2
1,2
1,2
1,2
1,2
1,2
1,2
1,2
1,2
1,2
1,2
1,2
1,2
1,2
1,2
1,2
1,2
1,2
1,3
1,3
2,3
2,3
2,3
2,3
1,3
1,3
1,3
1,3
1,3
1,3
1,3
1,3
1,2
1,2
1,2
1,2
1,2
1,2
1,2
1,2
1,2
1,2
1,2
1,2
1,2
1,2
1,2
1,2
1,2
1,2
1,2
1,2
1,2
1,2
1,2
1,2
1,2
1,2
1,2
1,2
1,2
1,2
1,2
1,2
1,2
1,2
1,2
1,2
1,2
1,2
1,2
1,2
1,2
1,2
1,2
1,2
1,2
1,2
1,2
1,2
1,2
1,2
1,2
1,2
1,2
1,2
1,2
1,2
1,2
1,2
1,2
1,2
1,2
1,2
1,2
1,2
1,2
1,2
1,2
1,2
1,2
1,2
1,2
1,2
1,2
1,2
1,2
1,2
1,2
1,2
1,2
1,2
1,2
1,2
1,2
1,2
1,2
1,2
1,2
1,2
1,2
1,2
1,2
1,2
1,2
1,2
1,2
1,2
1,2
1,2
1,2
1,2
1,2
1,2
1,2
1,2
1,2
1,2
1,2
1,2
1,2
1,2
1,2
1,2
1,2
1,2
1,2
1,2
1,2
1,2
1,2
1,2
1,2
1,2
1,2
1,2
1,2
1,2
1,2
1,2
1,2
1,2
1,2
1,2
1,2
1,2
1,2
1,2
1,2
1,2
1,2
1,2
1,2
1,2
1,2
1,2
1,2
1,2
1,2
1,2
1,2
1,2
1,2
1,2
1,2
1,2
1,2
1,2
1,2
1,2
1,2
1,2
1,2
1,2
1,2
1,2
1,2
1,2
1,2
1,2
1,2
1,2
1,2
1,2
1,2
1,3
1,3
1,3
1,3
1,3
1,3
1,3
1,3
1,3
1,3
1,2
1,2
1,2
1,2
1,2
1,2
1,2
1,2
1,2
1,2
1,2
1,2
1,2
1,2
1,2
1,2
1,2
1,2
1,2
1,2
1,2
1,2
1,2
1,2
1,2
1,2
1,2
1,2
1,2
1,2
1,2
1,2
1,2
1,2
1,2
1,2
1,2
1,2
1,2
1,2
1,2
1,2
1,2
1,2
1,2
1,2
1,2
1,2
1,2
1,2
1,2
1,2
1,2
1,2
1,2
1,2
1,2
1,2
1,2
1,2
1,2
1,2
1,2
1,2
1,2
1,2
1,2
1,2
1,2
1,2
1,2
1,2
1,2
1,2
1,2
1,2
1,2
1,2
1,2
1,2
1,2
1,2
1,2
1,2
1,2
1,2
1,2
1,2
1,2
1,2
1,2
1,2
1,2
1,2
1,2
1,2
1,2
1,2
1,2
1,2
1,2
1,2
1,3
1,3
1,3
1,3
1,3
1,3
1,3
1,3
1,2
1,2
1,2
1,2
1,2
1,2
1,2
1,2
1,2
1,2
1,2
1,2
1,2
1,2
1,2
1,2
1,2
1,2
1,2
1,2
1,2
1,2
1,2
1,2
1,2
1,2
1,2
2,2
2,2
2,2
2,2
2,2
2,2
1,2
1,2
1,2
1,2
1,2
1,2
1,2
1,2
1,2
1,2
1,2
1,2
1,2
1,2
1,2
1,2
1,2
1,2
1,2
1,2
1,2
1,2
1,2
1,2
1,2
1,2
1,2
1,2
1,2
1,2
1,2
1,2
1,2
1,2
1,2
1,2
1,2
1,2
1,2
1,2
1,2
1,2
1,2
1,2
1,2
1,2
1,2
1,2
1,2
1,2
1,2
1,2
1,2
1,3
1,3
1,3
1,3
2,4
2,6
2,6
3,8
3,8
4,11
4,11
5,15
5,15
5,19
5,19
6,24
6,24
6,33
6,33
7,43
7,43
7,52
7,64
7,64
7,64
8,75
8,75
9,90
9,101
9,101
9,101
10,108
10,117
10,117
10,121
10,121
10,121
10,125
10,125
10,132
10,132
10,132
10,132
10,132
10,127
10,127
10,126
10,126
10,124
10,124
11,126
11,126
11,126
11,126
11,126
11,129
11,135
11,135
11,131
11,131
11,131
11,129
12,128
12,128
12,127
12,127
11,125
11,125
10,122
10,122
10,115
10,107
10,107
10,107
8,100
8,98
8,98
8,93
8,93
7,89
7,89
7,85
7,85
8,80
8,80
8,73
8,73
7,65
7,65
7,59
7,59
7,53
7,48
7,48
6,44
6,44
5,39
5,39
4,34
3,29
3,29
3,29
3,29
2,21
2,18
2,18
2,18
2,14
2,14
2,13
2,13
2,13
2,13
2,12
2,12
2,11
2,11
2,11
2,11
1,10
1,10
1,10
2,10
2,10
2,9
2,9
2,8
2,8
2,7
2,6
2,6
1,6
1,6
1,6
1,5
1,5
2,5
2,4
2,4
1,5
1,5
1,5
1,5
1,4
1,4
1,4
1,4
1,4
1,4
1,4
1,4
1,4
1,4
1,4
1,4
1,4
1,4
1,4
1,4
1,4
1,4
1,4
1,4
1,4
1,3
1,3
1,3
1,3
1,3
1,3
1,2
1,2
1,2
1,2
1,2
1,2
1,2
1,2
1,2
1,2
1,2
1,2
1,2
1,2
1,2
1,2
1,2
1,2
1,2
1,2
1,2
1,2
1,2
1,2
2,2
2,2
2,2
2,2
2,2
2,2
2,2
2,2
2,2
2,2
2,2
1,2
1,2
1,2
1,2
1,2
1,2
1,2
1,2
1,2
1,2
1,2
1,2
1,2
1,2
1,2
1,2
1,2
1,2
1,2
1,2
1,2
1,2
1,2
1,2
1,2
1,2
1,2
1,2
1,2
1,2
1,2
1,2
1,2
1,2
1,2
1,2
1,2
1,2
1,2
1,2
1,2
1,2
1,2
1,2
1,2
1,2
1,2
1,2
1,2
1,2
1,2
1,2
1,2
1,2
1,2
1,2
1,2
1,2
1,2
1,2
1,2
1,2
1,2
1,2
1,2
1,2
1,2
1,2
1,2
1,2
1,2
1,2
1,2
1,3
1,3
1,3
1,3
1,3
1,3
1,2
1,2
1,2
1,2
1,2
1,2
1,2
1,2
1,2
1,2
1,2
1,2
1,2
1,2
1,2
1,2
1,2
1,2
1,2
1,2
1,2
1,2
1,2
1,2
1,2
1,2
1,2
1,2
1,2
1,2
1,2
1,2
1,2
1,2
1,2
1,2
1,2
1,2
1,2
1,2
1,2
1,2
1,2
1,2
1,2
1,2
1,2
1,2
1,2
1,2
1,2
1,2
1,2
1,2
1,2
1,2
1,2
1,2
1,2
1,2
1,2
1,2
1,2
1,2
1,2
1,2
1,2
1,2
1,2
1,2
1,2
1,2
1,2
1,2
1,2
1,2
1,2
1,2
1,2
1,2
1,2
1,2
1,2
1,2
1,2
1,2
1,2
1,2
1,2
1,2
1,2
1,2
1,2
1,2
1,2
1,2
1,2
1,2
1,2
1,2
1,2
1,2
1,2
1,3
1,3
1,3
1,3
1,3
1,3
1,2
1,2
1,2
1,2
1,2
1,2
1,2
1,2
1,2
1,2
1,2
1,2
1,2
1,2
1,2
1,2
1,2
1,2
1,2
1,2
1,2
1,2
1,2
1,2
1,2
1,2
1,2
1,2
1,2
1,2
1,2
1,2
1,2
1,2
1,2
1,2
1,2
1,2
1,2
1,2
1,2
1,2
1,2
1,2
1,2
1,2
1,2
1,2
1,2
1,2
1,2
1,2
1,2
1,2
1,2
1,2
1,2
1,2
1,2
1,2
1,2
1,2
1,2
1,2
1,2
1,2
1,2
1,2
1,2
1,2
1,2
1,2
1,2
1,2
1,2
1,2
1,2
1,2
1,2
1,2
1,2
1,2
1,2
1,2
1,2
1,2
1,2
1,2
1,2
1,2
1,2
1,2
1,2
1,2
1,2
1,2
1,2
1,2
1,2
1,2
1,2
1,2
1,2
1,2
1,2
1,2
1,2
1,2
1,2
1,2
1,2
1,2
1,2
1,2
1,2
1,2
1,2
1,2
1,2
1,2
1,2
1,2
1,2
1,2
1,2
1,2
1,2
1,2
1,2
1,2
1,2
1,2
1,2
1,2
1,2
1,2
1,2
1,2
1,2
1,2
1,2
1,2
1,2
1,2
1,2
1,2
1,2
1,2
1,2
1,2
1,2
1,2
1,2
1,2
1,2
1,2
1,2
1,2
1,2
1,2
1,2
1,2
1,2
1,2
1,2
1,2
1,2
1,2
1,2
1,2
1,2
1,2
1,2
1,2
1,2
1,2
1,2
1,2
1,2
1,2
1,2
1,2
1,2
1,2
1,2
1,2
1,2
1,2
1,2
1,2
1,2
1,2
1,2
1,2
1,2
1,2
1,2
1,2
1,2
1,2
1,2
1,2
1,2
1,2
1,2
1,2
1,2
1,2
1,2
1,2
1,2
1,2
1,2
1,2
1,2
1,2
1,2
1,2
1,2
1,2
1,2
1,2
1,2
1,2
1,2
1,2
1,2
1,2
1,2
1,2
1,2
1,2
1,2
1,2
1,2
1,2
1,2
1,2
1,2
1,2
1,2
1,2
1,2
1,2
1,2
1,2
1,2
1,2
1,2
1,2
1,2
1,2
1,2
1,2
1,2
1,2
1,2
1,2
1,2
1,2
1,2
1,2
1,2
1,2
1,2
1,2
1,2
1,2
1,2
1,2
1,2
1,2
1,2
1,2
1,2
1,2
1,2
1,2
1,2
1,2
1,2
1,2
1,2
1,2
1,2
1,2
1,2
1,2
1,2
1,2
1,2
1,2
1,2
1,2
1,2
1,2
1,2
1,2
1,2
1,2
1,2
1,2
1,2
1,2
1,2
1,3
1,3
1,3
1,3
1,5
1,5
2,7
2,7
2,12
2,12
2,15
2,15
3,20
4,30
4,30
5,41
5,41
6,56
6,56
7,74
7,74
9,91
11,118
11,118
12,141
12,141
12,157
12,157
13,166
13,166
13,174
13,174
13,174
13,174
13,188
13,202
13,202
13,207
13,207
13,210
13,211
13,211
13,211
12,204
12,204
13,196
13,196
13,191
12,185
12,185
12,186
12,186
12,189
12,189
12,195
12,195
12,195
12,195
12,186
12,186
12,184
12,184
12,184
12,184
13,186
13,186
12,186
12,186
11,175
11,175
11,169
11,169
11,167
11,167
11,165
11,165
11,163
11,163
11,159
11,156
11,156
10,154
10,154
10,145
10,145
10,138
10,138
10,126
10,126
10,126
10,126
10,115
10,115
10,121
10,121
10,131
11,145
11,145
11,162
11,162
12,185
12,185
13,197
13,197
13,203
14,205
14,205
14,205
14,201
14,195
14,195
14,188
14,188
14,187
14,187
13,183
13,183
12,187
12,187
12,187
11,189
11,189
11,185
11,185
10,184
10,184
10,179
10,179
10,179
10,179
10,170
10,161
10,161
9,145
9,145
9,145
8,120
8,120
8,111
8,111
8,103
8,97
8,97
8,95
8,95
8,88
8,88
8,88
8,88
8,88
7,73
7,73
6,63
6,63
5,56
5,51
4,45
4,45
4,45
4,40
4,40
4,36
4,36
4,34
4,34
5,33
5,33
5,32
5,32
5,30
4,26
4,23
4,23
4,18
4,18
4,18
3,10
3,10
3,9
3,9
2,7
2,7
2,5
2,5
2,4
2,4
1,3
1,3
1,3
1,2
1,2
1,2
1,2
1,2
1,2
1,2
1,2
1,2
1,2
1,2
1,2
1,2
1,2
1,2
1,2
1,2
1,2
1,2
1,2
1,2
1,2
1,2
1,2
1,2
1,2
1,2
1,2
1,2
1,2
1,2
1,2
1,2
1,2
1,2
1,2
1,2
1,2
1,2
1,2
1,2
1,2
1,2
1,2
1,2
1,2
1,2
1,2
1,2
1,2
1,2
1,2
1,2
1,2
1,2
1,2
1,2
1,2
1,2
1,2
1,2
1,2
1,2
1,2
1,2
1,2
1,2
1,2
1,2
1,2
1,2
1,2
1,2
1,2
1,2
1,2
1,2
1,2
1,2
1,2
1,2
1,2
1,2
1,2
1,2
1,2
1,2
1,2
1,2
1,2
1,2
1,2
1,2
1,2
1,2
1,2
1,2
1,2
1,2
1,2
1,2
1,2
1,2
1,2
1,2
1,2
1,2
1,2
1,2
1,2
1,2
1,2
1,2
1,2
1,2
1,2
1,2
1,2
1,2
1,2
1,2
1,2
1,2
1,2
1,2
1,2
1,2
1,2
1,2
1,2
1,2
1,2
1,2
1,2
1,2
1,2
1,2
1,2
1,2
1,2
1,2
1,2
1,2
1,2
1,2
1,2
1,2
1,2
1,2
1,2
1,2
1,2
1,2
1,2
1,2
1,2
1,2
1,2
1,2
1,2
1,2
1,2
1,3
1,3
1,3
1,3
1,3
1,3
1,3
1,3
1,4
1,4
1,4
1,4
1,3
1,3
1,3
1,3
1,3
1,3
1,3
1,3
1,3
1,2
1,2
1,2
1,2
1,2
1,2
1,2
1,2
1,2
1,2
1,2
1,3
1,3
1,3
1,3
1,4
1,4
1,4
1,4
2,5
2,5
2,5
2,6
2,6
2,6
2,6
2,7
2,7
2,8
2,8
2,9
2,9
2,12
2,16
2,20
2,20
2,20
2,25
2,25
3,30
3,30
3,35
3,41
3,41
3,45
3,45
4,49
4,49
4,49
4,49
4,55
4,55
5,65
5,65
5,73
5,73
6,81
6,81
7,90
7,90
8,100
8,100
9,111
9,111
11,123
11,123
12,136
13,150
13,150
14,159
14,159
14,165
14,165
14,168
14,168
13,165
13,162
13,162
13,157
13,157
12,147
12,147
11,139
11,139
10,128
10,128
10,123
10,123
10,119
9,114
9,111
9,111
9,111
9,98
9,98
9,87
8,77
8,77
8,67
8,67
7,60
7,60
7,55
7,55
6,50
6,50
6,49
6,49
6,49
4,48
4,48
4,48
4,48
4,50
4,50
5,54
5,54
5,54
5,60
5,60
6,65
7,77
7,77
8,89
8,89
10,106
10,106
11,127
11,143
11,143
11,143
13,159
13,159
14,172
14,172
17,199
17,206
17,206
17,211
17,211
16,210
16,210
16,205
16,205
16,203
16,203
16,196
16,192
16,192
16,185
16,185
15,181
15,181
15,176
15,176
15,175
15,175
15,182
15,182
16,185
16,185
15,186
15,186
15,186
13,154
12,124
11,102
11,102
11,102
10,83
10,83
9,66
9,66
8,54
8,54
7,40
7,40
6,35
6,31
6,31
6,31
5,31
5,30
5,30
4,31
4,31
3,30
3,30
3,30
3,30
3,32
3,32
2,34
2,37
2,37
3,43
3,50
3,50
3,50
4,64
4,64
5,78
6,95
6,95
8,112
8,112
9,132
9,132
11,151
11,151
13,159
13,159
14,161
14,161
15,173
15,173
15,173
15,173
15,183
15,183
15,183
17,189
17,189
18,189
18,189
18,186
18,186
19,184
19,184
19,186
19,183
19,183
19,183
18,188
17,192
17,192
17,195
17,195
16,191
16,191
15,186
15,186
15,184
15,184
15,179
15,179
15,175
15,175
15,169
14,160
14,160
14,149
14,143
14,143
14,143
14,141
14,141
13,137
13,138
13,138
12,134
12,134
12,134
12,134
12,135
12,135
11,135
11,135
11,135
11,135
10,134
10,133
10,129
10,129
10,129
11,130
11,130
11,130
11,130
10,135
10,135
10,137
10,137
10,136
11,141
11,141
12,146
12,150
12,150
12,150
12,157
13,161
13,161
13,161
13,166
14,166
14,166
14,166
14,166
13,158
13,158
12,145
12,134
12,134
12,134
10,120
10,120
9,104
9,104
9,95
9,95
9,85
8,73
8,73
7,61
7,50
7,50
7,50
7,38
7,38
5,20
5,20
4,18
4,18
4,14
4,14
3,9
3,9
3,6
3,6
3,4
3,4
2,4
2,4
2,4
2,3
2,3
2,4
2,4
2,4
2,4
2,4
2,4
1,4
1,4
1,4
1,4
1,4
1,4
1,4
1,4
1,4
1,4
1,4
2,4
2,4
2,4
2,4
2,4
2,4
2,4
2,4
2,4
2,5
2,5
2,5
2,5
2,6
2,6
2,6
2,7
2,7
2,7
2,7
1,8
1,8
1,9
1,9
1,9
1,9
1,9
1,9
1,10
1,10
1,10
1,10
1,10
1,9
1,9
1,9
1,9
1,9
2,9
2,9
2,10
2,10
2,11
2,11
2,13
2,13
2,16
2,16
2,20
2,20
3,28
3,28
3,36
3,36
5,66
5,66
5,66
6,89
8,127
8,127
9,152
9,152
10,172
10,172
11,194
11,194
11,194
11,194
11,194
11,194
11,194
12,208
12,208
13,208
13,212
13,212
14,215
14,215
15,225
15,225
15,233
15,233
16,235
16,235
16,225
16,225
16,219
16,219
15,217
15,217
15,206
15,206
14,192
14,192
13,182
13,182
13,182
12,179
12,188
12,188
12,188
12,196
12,196
12,203
12,203
12,207
12,207
12,205
12,205
12,205
13,204
13,204
14,188
14,188
14,184
14,184
14,181
14,181
15,183
15,183
16,193
16,193
18,210
19,211
19,211
19,209
19,210
19,210
19,210
18,207
18,207
17,199
17,199
16,198
16,198
15,193
15,193
14,194
14,194
13,195
12,190
12,190
12,178
12,178
11,164
11,146
11,146
11,146
11,133
11,133
11,125
11,125
10,119
10,119
10,119
11,121
11,121
10,123
10,127
10,127
10,127
10,132
10,132
9,133
9,133
9,135
9,130
9,130
8,124
8,124
8,118
8,118
7,103
7,103
6,100
6,100
6,100
6,100
6,97
6,90
6,90
6,90
6,86
6,86
6,82
6,82
6,77
6,77
7,73
7,73
7,74
7,77
7,82
7,82
7,82
6,90
6,92
6,92
6,92
6,89
6,89
6,89
6,87
6,87
7,87
7,87
7,85
7,85
7,85
7,82
7,82
7,82
7,82
8,78
8,78
8,77
8,77
7,76
7,76
7,76
7,76
6,74
6,74
6,74
6,74
5,73
5,71
5,71
5,68
5,64
5,64
5,64
6,61
6,61
6,57
6,54
6,54
7,50
7,44
7,44
7,44
7,39
7,39
7,34
7,34
7,29
6,24
6,24
5,18
5,18
5,14
5,14
4,12
4,12
4,9
4,9
3,7
3,7
2,5
2,5
2,4
2,4
2,3
2,3
1,3
1,2
1,2
1,2
1,2
1,2
1,2
1,2
1,2
1,2
1,2
1,2
1,2
1,2
1,2
1,2
1,2
1,2
1,2
1,2
1,2
1,2
1,2
1,2
1,2
1,3
1,3
1,3
1,3
1,3
1,3
1,3
1,3
1,3
1,3
1,3
1,2
1,2
1,2
1,2
1,2
1,2
1,2
1,2
1,2
1,2
1,3
1,3
1,3
1,3
1,3
1,3
1,3
1,2
1,2
1,2
1,2
1,2
1,2
1,2
1,2
1,2
1,2
1,2
1,2
1,2
1,2
1,2
1,2
1,2
1,2
1,2
1,2
1,2
1,2
1,2
1,2
1,2
1,2
1,2
1,2
1,2
1,2
1,2
1,2
1,2
1,2
1,2
1,2
1,2
1,2
1,2
1,2
1,2
1,2
1,2
1,2
1,2
1,2
1,2
1,2
1,2
1,2
1,2
1,2
1,2
1,2
1,2
1,2
1,2
1,2
1,2
1,2
1,2
1,2
1,2
1,2
1,2
1,2
1,2
1,2
1,2
1,2
1,2
1,2
1,2
1,2
1,2
1,2
1,2
1,2
1,2
1,2
1,2
1,2
1,2
1,2
1,2
1,2
1,2
1,2
1,2
1,2
1,2
1,2
1,2
1,2
1,2
1,2
1,2
1,2
1,2
1,2
1,2
1,2
1,2
1,2
1,2
1,2
1,2
1,2
1,2
1,2
1,2
1,2
1,2
1,2
1,2
1,2
1,2
1,2
1,2
1,2
1,2
1,2
1,2
1,2
1,2
1,2
1,2
1,2
1,2
1,2
1,2
1,2
1,2
1,2
1,2
1,2
1,2
1,2
1,2
1,2
1,2
1,2
1,2
1,2
1,2
1,2
1,2
1,2
1,2
1,2
1,2
1,2
1,2
1,2
1,2
1,2
1,2
1,2
1,2
1,2
1,2
1,2
1,2
1,2
1,2
1,2
1,2
1,2
1,2
1,2
1,2
1,2
1,2
1,2
1,2
1,2
1,2
1,2
1,2
1,2
1,2
1,2
1,2
1,2
1,2
1,2
1,2
1,2
1,2
1,2
1,2
1,2
1,2
1,2
1,2
1,2
1,2
1,2
1,2
1,2
1,2
1,2
1,2
1,2
1,2
1,2
1,2
1,2
1,2
1,2
1,2
1,2
1,2
1,2
1,2
1,2
1,2
1,2
1,2
1,2
1,2
1,2
1,2
1,2
1,2
1,2
1,2
1,2
1,2
1,2
1,2
1,2
1,2
1,2
1,2
1,2
1,2
1,2
1,2
1,2
1,2
1,2
1,2
1,2
1,2
1,2
1,2
1,2
1,2
1,2
1,2
1,2
1,2
1,2
1,2
1,2
1,2
1,2
1,2
1,2
1,2
1,2
1,2
1,2
1,2
1,2
1,2
1,2
1,2
1,2
1,2
1,2
1,2
1,2
1,2
1,2
1,2
1,2
1,2
1,2
1,2
1,2
1,2
1,2
1,2
1,2
1,2
1,2
1,2
1,2
1,2
1,2
1,2
1,2
1,2
1,2
1,2
1,2
1,2
1,2
1,2
1,2
1,2
1,2
1,2
1,2
1,2
1,2
1,2
1,2
1,2
1,2
1,2
1,2
1,3
1,3
1,3
1,3
1,3
1,3
1,3
1,3
1,3
1,2
1,2
1,2
1,2
1,2
1,2
1,2
1,2
1,2
1,2
1,2
1,2
1,2
1,2
1,2
1,2
1,2
1,2
1,2
1,2
1,2
1,2
1,2
1,2
1,2
1,2
1,2
1,2
1,2
1,2
1,2
1,2
1,2
1,2
1,2
1,2
1,2
1,2
1,2
1,2
1,2
1,2
1,2
1,2
1,2
1,2
1,2
1,2
1,2
1,2
1,2
1,2
1,2
1,2
1,2
1,2
1,2
1,2
1,2
1,2
1,2
1,2
1,2
1,2
1,2
1,2
1,2
1,2
1,2
1,2
1,2
1,2
1,2
1,2
1,2
1,2
1,2
1,2
1,2
1,2
1,2
1,2
1,2
1,2
1,2
1,2
1,2
1,2
1,2
1,2
1,2
1,2
1,2
1,2
1,2
1,2
1,2
1,2
1,2
1,2
1,2
1,2
1,2
1,2
1,2
1,2
1,2
1,2
1,2
1,2
1,2
1,2
1,2
1,2
1,2
1,2
1,2
1,2
1,2
1,2
1,2
1,2
1,2
1,2
1,2
1,2
1,2
1,2
1,2
1,2
1,2
1,2
1,2
1,2
1,2
1,2
1,2
1,2
1,2
1,2
1,2
1,2
1,2
1,2
1,2
1,2
1,2
1,2
1,2
1,2
1,2
1,2
1,2
1,2
1,2
1,2
1,2
1,2
1,2
1,2
1,2
1,2
1,2
1,2
1,2
1,2
1,2
1,2
1,2
1,2
1,2
1,2
1,2
1,2
1,2
1,2
1,2
1,2
1,2
1,2
1,2
1,2
1,2
1,2
1,2
1,2
1,2
1,2
1,2
1,2
1,2
1,2
1,2
1,2
1,2
1,2
1,2
1,2
1,2
1,2
1,2
1,2
1,2
1,2
1,2
1,2
1,2
1,2
1,2
1,2
1,2
1,2
1,2
1,2
1,2
1,2
1,2
1,2
1,2
1,2
1,2
1,2
1,2
1,2
1,2
1,2
1,2
1,2
1,2
1,2
1,2
1,2
1,2
1,2
1,2
1,2
1,2
1,2
1,2
1,2
1,2
1,2
1,2
1,2
1,2
1,2
1,2
1,2
1,2
1,2
1,2
1,2
1,2
1,2
1,2
1,2
1,2
1,2
1,2
1,2
1,2
1,2
1,2
1,2
1,2
1,2
1,2
1,2
1,2
1,2
1,2
1,2
1,2
1,2
1,2
1,2
1,2
1,2
1,2
1,2
1,2
1,2
1,2
1,2
1,2
1,2
1,2
1,2
1,2
1,2
1,2
1,2
1,2
1,2
1,2
1,2
1,2
1,2
1,2
1,2
1,2
1,2
1,2
1,2
1,2
1,2
1,2
1,2
1,2
1,2
1,2
1,2
1,2
1,2
1,2
1,2
1,2
1,2
1,2
1,2
1,2
1,2
1,2
1,2
1,2
1,2
1,2
1,2
1,2
1,2
1,2
1,2
1,2
1,2
1,2
1,2
1,2
1,2
1,2
1,2
1,2
1,2
1,2
1,2
1,2
1,2
1,2
1,2
1,2
1,2
1,2
1,2
1,2
1,2
1,2
1,2
1,2
1,2
1,2
1,2
1,2
1,2
1,2
1,2
1,2
1,2
1,2
1,2
1,2
1,2
1,2
1,2
1,2
1,2
1,2
1,2
1,2
1,2
1,2
1,2
1,2
1,2
1,2
1,2
1,2
1,2
1,2
1,2
1,2
1,2
1,2
1,2
1,2
1,2
1,2
1,2
1,2
1,2
1,2
1,2
1,2
1,2
1,2
1,2
1,2
1,2
1,2
1,2
1,2
1,3
1,3
1,3
1,3
1,3
1,3
1,3
1,3
1,3
1,3
1,3
1,3
1,2
1,2
1,2
1,2
1,2
1,2
1,2
1,3
1,3
1,3
1,3
1,3
1,3
1,3
1,3
1,3
1,3
1,3
1,3
1,3
1,3
1,3
1,3
1,3
1,3
1,3
1,3
1,3
1,3
1,3
1,3
1,3
1,3
1,3
1,3
1,3
1,3
1,3
1,3
1,3
1,3
1,3
1,3
1,3
1,3
1,3
1,3
1,3
1,3
