11,4
11,4
10,3
10,3
10,3
10,3
10,2
10,2
10,2
11,2
11,1
11,1
11,1
10,1
10,1
10,1
10,1
10,1
10,1
10,2
10,2
10,2
11,2
11,2
11,2
11,2
11,2
11,2
11,2
11,2
11,2
12,2
13,2
13,2
15,3
18,4
19,4
19,4
24,6
28,8
28,8
33,10
38,13
38,13
46,16
56,21
56,21
61,26
67,33
67,33
73,39
77,43
79,47
79,47
79,49
79,49
78,51
77,52
77,52
79,54
81,57
83,59
83,59
84,59
88,59
93,60
97,60
97,60
98,58
103,53
103,53
99,53
100,56
100,56
100,56
104,61
109,65
119,68
119,68
127,70
134,75
146,79
146,79
159,81
164,80
164,80
169,76
171,72
171,72
167,70
167,70
172,70
176,72
176,72
175,73
169,74
169,74
167,74
165,73
165,73
160,73
160,73
153,71
149,71
145,72
145,72
148,71
155,70
155,70
154,67
148,64
148,64
140,61
140,61
130,58
122,57
110,51
110,51
95,44
95,44
95,44
61,28
61,28
46,21
30,14
30,14
21,9
21,9
15,6
11,3
9,2
9,2
7,1
7,1
7,1
7,1
8,1
10,1
10,1
12,2
17,3
17,3
22,5
26,7
26,7
30,9
35,13
39,16
39,19
39,19
40,22
40,22
40,22
37,21
33,19
33,19
31,18
28,16
27,16
27,16
28,16
32,17
38,19
38,19
38,19
53,26
53,26
66,32
81,39
81,39
90,47
102,54
117,59
127,62
134,67
134,67
134,70
136,71
136,71
140,71
150,73
165,76
171,75
181,75
181,75
193,76
196,79
196,79
194,87
194,87
192,91
189,92
189,92
191,90
195,89
195,89
196,88
191,88
191,88
185,89
176,87
176,87
172,87
172,87
169,87
163,83
163,83
163,83
163,83
148,79
145,78
145,78
148,79
153,79
154,76
160,75
160,75
167,74
170,73
167,74
167,74
163,75
163,75
162,73
162,73
162,73
162,73
162,73
162,73
162,73
162,73
162,73
162,73
162,73
162,73
162,73
162,73
162,73
162,73
162,73
162,73
162,73
162,73
162,73
162,73
162,73
162,73
162,73
162,73
162,73
162,73
162,73
162,73
162,73
162,73
162,73
162,73
162,73
162,73
162,73
162,73
162,73
162,73
162,73
162,73
162,73
162,73
162,73
162,73
162,73
162,73
162,73
162,73
162,73
162,73
162,73
162,73
162,73
162,73
162,73
162,73
162,73
162,73
162,73
162,73
162,73
162,73
162,73
162,73
162,73
162,73
162,73
162,73
162,73
162,73
162,73
162,73
162,73
162,73
162,73
162,73
162,73
162,73
162,73
162,73
162,73
162,73
162,73
162,73
162,73
162,73
162,73
162,73
162,73
162,73
162,73
162,73
162,73
162,73
162,73
162,73
162,73
162,73
162,73
162,73
162,73
162,73
162,73
162,73
162,73
162,73
162,73
0,0
0,0
2,4
13,26
13,26
22,49
34,82
34,82
38,97
38,107
38,107
38,109
35,100
35,100
29,80
25,63
25,63
21,49
18,38
16,30
16,30
14,20
14,20
13,17
13,14
13,11
13,9
13,9
12,6
11,4
10,3
10,3
10,2
10,2
10,2
10,1
10,1
10,1
10,1
10,1
10,1
10,1
10,1
10,2
10,2
10,2
10,2
10,2
10,2
10,2
10,2
9,2
8,2
8,2
8,2
8,2
8,2
8,2
9,2
9,2
9,2
9,2
9,2
9,2
9,2
9,2
9,2
9,2
9,2
10,2
10,2
10,2
10,2
11,2
11,2
11,2
11,2
11,2
11,2
12,2
12,2
12,2
12,2
12,2
11,2
10,2
10,2
10,2
10,2
10,2
9,2
10,2
10,2
10,2
10,1
10,1
11,1
11,1
11,1
11,1
10,1
10,1
10,1
10,1
10,1
10,1
10,1
10,1
10,2
10,2
10,1
9,1
9,1
9,1
8,1
8,1
8,1
8,2
8,2
8,2
8,2
8,2
8,2
8,2
9,2
9,2
9,2
9,2
9,2
9,2
9,2
9,2
9,2
9,2
9,2
9,2
9,2
9,2
10,2
10,2
10,2
10,2
10,2
10,2
10,2
10,2
11,2
11,2
11,2
11,2
11,2
11,2
11,2
12,2
12,2
12,2
11,2
11,2
11,2
11,2
11,2
11,2
11,2
10,2
10,2
10,2
10,2
10,2
10,2
9,2
9,2
9,2
9,2
9,2
9,2
9,2
10,2
10,2
10,2
11,2
11,2
11,2
12,2
12,2
12,2
12,2
12,2
11,2
11,2
10,2
9,2
9,2
9,2
9,2
9,2
9,2
9,2
10,2
10,2
10,2
10,2
10,2
10,2
9,2
9,2
9,2
9,2
9,2
9,2
9,2
10,2
10,2
10,2
10,2
10,2
10,2
10,2
10,2
10,2
10,2
10,1
10,1
10,2
10,2
10,2
10,1
11,2
11,2
11,2
11,2
11,2
12,2
12,2
12,2
12,2
11,2
11,1
10,2
10,2
10,2
10,2
10,2
10,2
11,2
11,2
11,2
11,2
11,2
11,2
12,2
12,2
12,2
12,2
12,2
12,2
12,2
11,2
11,2
11,2
11,2
11,2
11,2
10,2
11,2
11,2
11,2
11,2
11,2
11,2
11,2
11,2
11,2
10,2
10,2
10,2
10,2
10,2
9,2
9,2
9,2
9,1
9,1
10,1
10,1
10,1
11,1
11,2
10,2
10,2
10,2
10,2
9,2
9,2
9,2
9,2
9,2
9,2
9,2
9,2
8,2
8,2
9,2
9,2
9,2
9,2
9,2
8,2
8,2
8,2
8,2
8,2
9,2
9,2
9,2
9,2
9,2
9,2
9,2
9,2
9,2
9,2
9,2
9,2
9,2
9,2
9,2
8,2
9,2
9,2
9,2
9,2
9,2
9,2
10,2
10,2
10,2
11,2
11,2
11,2
11,2
12,2
12,2
12,2
12,2
12,2
12,2
12,2
12,2
12,2
12,2
12,2
12,2
12,2
11,2
11,2
11,2
11,2
11,2
11,2
11,2
11,2
11,2
11,2
11,2
10,2
10,2
10,2
9,2
9,2
9,2
9,2
9,2
9,2
9,2
9,2
9,2
9,2
9,2
10,2
10,2
10,2
10,2
10,2
10,2
10,2
10,2
10,2
10,2
10,2
10,2
10,2
10,2
10,2
10,2
10,2
10,2
10,2
10,2
10,2
10,2
10,2
9,2
9,1
9,1
8,1
8,1
8,2
9,2
9,2
9,2
9,2
9,2
9,2
9,2
9,2
9,2
9,2
9,2
9,2
9,2
9,2
9,2
10,2
10,2
10,2
10,2
10,2
11,2
11,2
11,2
11,2
11,2
12,2
13,3
15,4
15,4
15,4
19,5
19,5
23,7
27,9
27,9
33,11
41,16
50,20
59,23
64,26
68,30
68,30
77,35
80,40
80,40
83,44
86,48
86,48
91,50
91,50
94,52
99,56
99,56
101,60
101,63
101,63
105,63
114,64
114,64
116,64
121,66
121,66
130,67
130,67
139,68
142,67
142,67
143,66
140,66
140,66
130,64
123,63
121,62
121,62
121,62
121,62
112,62
111,64
113,64
113,64
115,61
120,58
120,58
125,57
125,57
132,56
131,55
131,55
132,57
134,59
134,59
134,61
134,61
140,64
145,65
148,66
154,69
156,73
152,77
152,77
150,80
149,81
145,80
145,80
140,81
140,81
140,81
137,81
137,81
137,81
138,77
138,76
138,76
139,73
142,70
142,70
153,67
161,66
161,66
162,70
162,70
162,70
176,79
173,81
173,81
175,81
177,80
175,78
173,75
172,76
166,77
166,77
157,81
153,83
151,84
151,84
149,81
144,80
144,80
145,79
149,78
149,78
147,77
146,75
146,75
145,72
145,72
145,72
148,74
148,74
150,75
160,78
160,78
175,79
175,79
184,77
192,79
200,80
209,80
206,78
206,78
207,79
199,80
199,80
199,80
199,80
189,80
189,82
190,83
190,83
189,85
181,86
181,86
177,86
171,84
172,81
172,81
174,79
175,79
175,79
174,82
176,87
180,89
180,89
186,90
189,91
185,91
185,91
180,90
180,88
180,88
177,87
166,84
166,84
160,83
160,83
157,82
159,83
159,83
162,83
164,83
164,83
167,85
167,85
171,87
169,87
169,87
169,87
170,86
170,86
170,86
170,86
174,80
184,78
191,76
191,76
190,76
189,74
189,74
184,74
178,76
178,76
170,77
168,78
161,81
158,83
158,83
158,84
156,82
156,82
153,80
159,78
166,75
166,75
174,74
178,74
178,74
182,75
181,78
181,78
184,80
185,81
184,82
184,82
179,83
162,78
152,74
152,74
148,70
144,67
144,67
143,66
144,64
141,62
141,62
141,62
143,63
143,63
149,66
155,69
155,69
167,73
177,75
179,80
179,80
186,85
192,87
192,87
195,90
192,92
192,92
173,85
157,79
157,79
146,72
138,66
138,66
133,63
129,60
129,60
122,57
119,57
119,57
119,56
119,56
111,52
98,46
98,46
86,40
75,34
75,34
59,26
49,22
49,22
40,17
40,17
31,13
24,9
24,9
16,5
13,4
13,4
13,4
9,2
9,2
9,1
8,1
8,1
8,1
8,1
8,1
9,1
9,2
9,2
9,2
8,2
8,2
8,3
8,3
8,3
8,3
8,2
8,2
8,2
8,2
8,2
8,2
8,2
8,2
8,2
8,2
8,2
8,1
8,1
9,2
9,2
9,2
9,2
9,2
9,2
9,2
9,2
9,2
9,3
9,3
10,3
10,3
10,3
12,5
12,5
12,6
13,9
13,9
14,12
15,15
17,21
20,31
20,31
23,43
23,43
26,57
33,92
33,92
37,115
37,115
42,135
45,150
45,150
45,164
46,174
46,174
46,174
43,167
39,151
39,151
34,127
30,101
27,77
27,52
27,52
29,38
31,27
32,20
32,20
35,17
39,15
39,15
38,13
38,13
34,12
29,10
29,10
29,10
18,6
18,6
14,4
12,4
10,3
10,3
9,4
8,5
8,5
10,7
12,9
14,12
14,12
16,16
16,16
19,22
21,29
21,29
22,32
23,46
23,46
25,57
25,57
26,67
28,78
28,78
30,90
33,108
33,108
36,118
36,118
38,127
42,139
43,146
42,154
42,154
41,155
40,153
37,144
34,132
31,119
28,107
28,107
28,107
21,71
21,71
19,59
19,59
16,42
14,28
12,17
12,17
12,8
12,8
12,4
12,1
12,1
12,0
12,0
12,0
12,0
11,0
11,1
11,1
11,1
11,1
10,1
10,1
10,1
10,1
9,2
9,2
9,2
9,2
8,2
8,2
8,2
8,2
8,2
8,2
8,2
8,2
8,2
9,2
9,2
9,2
10,2
10,2
10,2
10,2
10,2
9,2
9,2
9,2
9,2
9,2
9,2
9,2
9,2
9,2
10,2
10,2
10,2
10,2
10,2
11,2
11,2
11,2
11,2
11,2
11,2
11,2
11,2
10,2
10,2
10,2
10,2
9,1
9,1
9,1
8,1
8,1
8,1
8,2
8,2
8,2
8,2
8,2
8,2
8,2
8,2
8,2
8,2
8,2
8,2
9,2
9,2
9,2
9,2
10,2
12,3
15,3
15,3
20,3
25,3
25,3
35,3
40,3
40,3
43,3
45,3
45,3
45,4
45,4
48,4
49,5
49,5
49,5
49,7
48,8
48,10
48,10
47,12
46,15
46,15
43,22
40,28
40,28
35,33
31,37
27,38
27,38
25,36
25,36
26,33
26,33
26,33
31,27
32,24
36,21
36,21
40,21
41,21
48,23
48,23
54,26
60,31
60,31
64,36
70,43
70,43
75,50
78,57
81,64
81,64
85,69
92,71
96,70
100,69
101,67
101,67
98,62
93,58
88,55
88,55
77,48
64,40
48,32
48,32
38,29
30,28
30,28
25,31
23,38
24,54
24,54
28,73
28,73
28,73
37,120
37,120
42,144
46,167
46,167
48,176
49,179
49,179
49,182
49,180
49,180
50,176
50,177
50,177
50,179
49,174
49,174
47,168
44,160
44,160
39,143
33,119
33,119
28,87
27,67
27,67
28,49
28,34
26,22
23,11
20,5
20,5
18,1
15,0
13,1
13,1
12,1
11,0
11,0
10,0
10,0
10,0
10,1
10,1
10,1
10,2
10,2
10,2
10,2
10,2
10,2
10,2
11,2
11,2
11,2
12,2
12,2
12,2
12,2
11,2
11,2
11,2
12,2
12,2
13,2
15,2
15,2
18,3
22,4
22,4
29,5
38,7
38,7
46,10
53,14
53,14
68,24
68,24
75,30
75,30
82,38
82,42
82,42
81,45
77,45
77,45
67,41
59,36
59,36
59,36
59,36
45,29
37,25
37,25
32,23
28,24
27,28
27,28
27,39
29,52
31,68
31,68
33,89
35,110
35,110
41,138
44,153
44,153
46,166
48,179
48,179
49,180
49,177
49,177
50,179
50,180
50,180
51,180
51,181
50,179
50,179
50,171
49,166
49,166
47,160
45,156
44,149
44,149
43,145
42,144
42,144
42,147
41,147
41,147
41,147
41,147
40,146
36,136
31,114
27,93
27,93
24,71
21,51
21,51
18,34
15,17
15,17
13,8
12,2
12,2
11,1
10,2
10,2
10,2
9,2
9,2
9,0
9,0
9,0
10,1
11,1
11,1
12,2
12,2
12,2
12,2
12,2
12,2
12,2
12,2
12,3
13,3
13,3
15,4
19,5
19,5
34,10
34,10
44,13
57,18
57,18
72,25
76,28
76,28
84,35
91,38
91,38
90,44
89,48
89,48
90,52
88,54
88,54
83,55
79,55
79,55
74,54
69,52
69,52
60,46
48,40
48,40
40,38
35,39
35,39
31,45
30,55
30,55
32,78
33,85
35,107
35,107
40,132
43,148
45,163
46,173
46,173
47,177
48,179
48,180
48,180
48,180
48,180
46,180
43,177
43,177
42,175
40,170
39,169
39,169
39,161
38,155
38,155
36,152
36,146
36,146
35,141
32,128
32,128
29,112
25,92
22,71
20,47
20,47
21,33
21,22
21,22
21,8
20,5
17,1
15,0
14,0
12,0
12,0
11,0
11,0
11,0
12,0
12,1
12,1
12,1
12,1
12,1
11,2
11,2
11,2
11,2
10,2
10,2
11,2
12,2
14,3
17,4
22,6
27,8
27,8
35,10
48,15
48,15
60,20
72,25
80,31
80,31
90,40
93,46
94,47
97,55
99,60
103,64
103,64
108,68
112,72
112,72
118,77
124,79
132,80
142,82
142,82
143,82
143,82
143,82
143,82
142,78
139,75
139,75
137,73
141,70
141,70
143,72
145,72
145,72
142,72
138,73
138,73
137,73
138,72
139,69
139,69
143,67
143,67
143,67
146,70
146,70
150,72
159,74
159,74
170,73
190,72
195,73
195,73
196,75
197,77
197,77
194,81
186,82
186,82
182,83
181,85
179,86
176,86
176,86
180,86
180,83
180,83
183,84
186,84
186,84
186,84
186,91
186,91
185,91
182,88
181,86
187,87
197,90
211,90
211,90
212,94
202,95
202,95
199,94
197,93
194,92
194,92
194,92
198,91
203,90
203,90
204,89
203,86
203,86
203,85
201,83
194,82
194,82
193,82
188,79
188,76
188,76
185,75
177,73
177,73
166,75
158,74
158,74
157,76
159,77
159,77
162,78
162,78
162,78
174,79
175,78
175,78
175,76
177,74
177,72
177,72
176,68
173,66
173,66
178,65
187,66
190,69
190,69
195,73
198,77
193,84
191,89
191,89
180,88
173,87
173,87
168,88
164,85
157,80
155,75
155,75
153,74
149,73
149,73
151,72
155,72
155,72
159,71
164,69
165,66
165,66
167,62
163,59
159,57
159,57
159,57
135,52
127,51
127,51
120,49
108,46
108,46
101,44
97,43
97,43
89,40
81,36
81,36
70,31
53,24
42,18
42,18
32,14
24,10
20,8
15,5
12,3
12,3
10,2
8,1
8,1
8,1
8,1
8,1
8,1
8,1
8,2
8,2
9,2
9,2
9,2
10,2
10,2
10,2
11,2
11,2
11,2
11,2
11,2
11,2
11,2
11,2
11,2
11,2
11,2
11,2
11,2
11,2
12,2
12,2
12,2
12,2
12,2
12,2
11,2
11,2
11,2
11,2
11,2
11,2
11,2
11,2
11,2
11,2
11,2
11,2
11,2
11,2
11,2
10,2
10,2
10,2
10,2
10,2
10,2
10,2
10,2
10,2
10,2
10,2
10,2
10,2
10,2
10,2
11,2
12,2
12,2
12,2
12,2
11,2
11,2
11,2
12,2
12,2
12,2
12,2
12,2
11,2
11,2
11,2
11,2
11,2
11,2
10,2
10,2
10,2
10,2
10,2
10,2
11,2
11,2
11,1
11,1
11,1
11,1
10,1
10,2
10,2
10,2
11,2
11,2
11,2
11,2
11,2
12,2
12,2
12,2
11,2
11,2
12,2
12,2
12,2
12,2
12,2
12,2
11,2
11,2
11,2
11,2
11,2
11,2
11,2
11,2
11,2
11,2
11,2
11,2
11,2
11,2
11,2
11,2
11,2
11,2
11,2
11,2
12,2
12,2
12,2
11,1
11,1
11,1
11,1
11,2
11,2
11,2
11,2
11,2
11,2
11,2
11,2
11,2
11,2
11,2
11,2
10,2
9,2
9,2
9,2
9,2
9,2
9,2
9,2
9,2
10,2
10,2
11,2
11,2
11,2
12,2
12,2
12,2
12,2
12,2
12,2
12,2
12,2
12,2
12,2
12,1
12,1
11,1
11,1
11,1
11,1
10,2
10,2
10,2
9,2
9,2
8,2
8,2
8,2
8,2
8,2
8,2
8,2
8,2
8,2
8,2
8,2
8,2
8,2
9,2
9,2
9,2
10,2
10,2
10,2
11,2
11,2
11,2
12,2
12,2
12,2
13,2
13,2
13,2
13,2
13,2
12,2
11,2
10,2
10,2
9,1
9,2
10,2
10,2
10,2
10,2
10,2
10,2
10,2
11,2
11,2
11,2
11,2
12,2
12,2
12,2
12,2
12,2
12,2
12,2
12,2
11,2
11,1
11,1
11,2
10,2
10,2
10,2
10,2
10,2
9,2
9,2
9,2
9,2
9,2
9,1
9,1
9,1
9,1
8,1
8,2
8,2
9,2
9,2
9,2
10,2
11,2
11,2
11,2
11,2
11,2
10,2
10,2
10,2
10,2
10,2
10,2
10,2
10,2
10,2
10,2
10,2
10,2
10,2
10,2
10,2
10,2
9,2
9,2
9,2
9,2
9,2
9,2
9,2
9,1
8,1
8,1
8,1
8,1
8,2
8,2
8,2
9,2
9,2
10,2
10,2
10,2
10,2
9,2
9,2
9,2
9,2
9,2
9,2
9,2
9,2
9,2
10,2
10,2
10,1
10,2
10,2
10,2
10,2
10,2
11,2
11,2
11,2
11,2
11,2
11,2
12,2
13,2
14,2
14,2
15,2
15,2
15,2
15,2
14,2
14,2
13,2
12,2
12,2
12,2
11,2
11,2
11,2
11,2
11,2
12,2
12,2
12,2
13,2
13,2
13,2
14,2
15,2
15,2
14,2
14,2
14,2
14,2
13,2
13,2
13,2
13,2
13,2
11,2
11,2
11,2
11,2
11,2
11,2
11,2
12,2
12,2
13,2
14,2
14,2
14,2
13,2
13,2
13,2
13,2
13,2
12,2
12,2
12,2
11,2
11,2
11,2
10,2
10,2
10,2
10,2
10,2
10,1
10,1
10,1
9,1
9,1
9,1
9,1
9,1
9,1
9,2
9,2
9,2
8,2
8,2
8,2
8,2
8,2
8,2
8,1
9,1
9,1
9,1
10,1
10,1
11,1
11,1
11,1
11,1
10,1
10,1
11,1
11,1
11,1
12,2
12,2
12,2
12,2
12,2
12,2
12,2
12,2
12,2
12,2
12,2
12,2
12,2
12,2
12,2
13,2
13,2
13,2
13,2
12,2
12,2
12,2
12,2
12,2
12,2
11,2
11,2
11,2
11,2
11,2
10,2
10,2
10,2
10,2
11,2
12,3
12,3
12,3
12,3
12,3
12,3
12,3
11,3
11,3
11,3
12,2
13,2
13,2
14,3
14,3
14,3
16,3
18,4
21,5
21,5
23,5
23,5
25,6
26,7
26,7
26,6
24,6
21,5
21,5
18,4
16,3
16,3
15,3
13,2
13,2
13,2
11,2
11,2
11,2
11,1
11,1
11,1
12,1
12,1
12,1
12,1
12,1
13,1
13,1
13,1
13,2
13,2
13,2
12,2
12,2
12,2
11,2
11,2
11,1
11,1
11,1
11,1
10,1
10,1
10,1
10,1
10,2
10,2
10,2
10,2
10,2
10,2
10,2
11,2
13,2
13,2
14,3
16,4
16,4
16,4
23,7
23,7
25,9
27,10
27,10
30,11
32,12
33,12
33,12
31,11
31,11
28,10
25,8
25,8
21,7
18,5
18,5
15,3
13,2
13,2
12,2
12,2
11,2
11,1
11,1
11,1
12,1
12,1
12,1
12,1
11,1
11,1
11,1
11,1
11,1
11,2
11,2
12,2
12,3
14,4
17,5
17,5
17,5
18,6
17,5
17,5
16,5
14,4
14,4
13,3
12,3
12,3
11,2
10,2
10,2
10,2
10,2
10,2
10,2
10,2
10,2
10,2
11,2
11,2
11,2
11,2
11,2
11,2
11,2
11,2
10,2
10,2
10,2
9,2
9,2
9,1
9,1
9,2
9,2
9,2
10,2
10,2
10,2
11,2
11,2
11,2
11,2
11,2
11,2
11,2
11,2
11,2
11,2
12,2
12,2
12,2
12,2
12,2
12,2
12,2
12,2
12,2
12,2
12,2
12,2
11,2
11,2
11,2
11,2
11,2
11,2
11,2
11,2
11,2
11,2
11,2
11,2
11,2
11,2
11,2
11,2
11,2
11,2
11,2
11,2
11,2
11,2
10,2
10,2
10,2
10,2
10,2
10,2
10,2
9,2
9,2
9,2
9,2
9,2
10,2
10,2
10,2
10,2
10,2
11,2
11,2
11,2
11,2
11,2
11,2
11,2
11,2
11,2
11,2
12,2
12,2
13,2
13,2
13,2
12,2
12,2
12,2
12,2
12,2
12,2
12,2
12,2
12,2
11,2
11,2
11,2
10,2
10,2
10,2
10,2
10,2
9,2
9,2
9,2
8,2
8,2
8,2
8,2
8,2
8,2
8,2
8,2
8,2
8,2
8,2
9,2
9,2
9,2
10,2
10,2
10,2
10,2
10,2
10,2
10,2
10,2
10,2
10,2
10,2
10,2
10,2
10,2
10,2
10,2
10,2
10,2
10,2
10,2
10,2
10,2
10,2
10,2
11,2
11,2
11,1
12,1
12,1
12,1
12,1
12,1
12,1
12,2
12,2
12,2
12,2
11,2
11,2
11,2
11,2
10,2
10,2
10,2
10,2
10,2
10,2
10,2
10,2
10,2
10,2
10,2
10,2
10,2
10,2
10,2
10,2
10,2
10,2
10,2
9,2
9,2
9,2
9,2
9,2
9,2
10,2
10,2
10,2
10,2
10,2
10,2
10,2
10,2
10,2
9,2
9,2
9,2
9,2
9,2
9,2
9,2
9,2
11,2
12,2
12,2
13,2
13,2
13,2
13,2
13,2
12,2
12,2
12,2
12,2
12,2
11,2
11,2
11,2
11,2
11,2
11,2
11,2
11,2
11,2
11,2
11,2
11,2
10,2
10,2
10,2
10,2
10,2
9,2
9,2
9,2
9,2
9,2
8,2
8,2
8,2
8,3
8,4
8,4
8,4
8,4
9,4
10,3
11,3
11,3
12,3
15,4
18,5
21,6
21,6
26,8
30,9
35,11
35,11
41,12
46,15
56,18
65,21
65,21
71,24
71,24
74,27
78,30
78,30
81,34
81,37
81,37
83,40
81,42
81,42
83,42
87,41
87,41
85,38
82,34
82,34
75,30
67,25
67,25
52,19
52,19
49,17
34,12
25,9
25,9
25,9
25,9
14,6
12,6
12,6
12,7
12,7
12,11
14,16
15,22
18,31
21,44
23,56
26,68
28,82
28,82
31,98
33,111
33,111
35,129
35,141
35,141
35,145
36,147
36,147
35,142
35,140
35,140
34,132
32,116
32,116
27,88
27,88
23,66
19,46
19,46
16,29
13,13
11,5
10,0
10,1
10,1
9,3
9,3
9,3
8,2
8,1
8,1
8,0
8,0
8,0
8,1
8,1
8,1
9,1
9,1
9,1
10,2
10,2
10,2
11,2
10,2
10,2
10,2
10,2
10,2
9,2
9,2
9,2
9,2
9,2
10,2
10,2
10,2
10,2
11,2
12,2
12,2
13,2
14,2
14,2
14,2
15,2
15,2
15,2
15,2
14,2
14,2
14,2
13,2
13,2
11,2
11,2
11,2
12,2
12,2
12,2
12,2
12,2
12,2
12,2
12,2
13,2
14,2
14,2
14,2
14,2
14,2
14,2
14,2
13,2
13,2
13,2
13,2
13,2
13,2
12,2
12,2
12,2
12,2
12,2
12,2
11,2
11,2
11,2
10,2
10,2
10,2
10,2
9,2
9,2
9,2
9,2
9,2
9,2
9,2
9,2
10,2
9,2
9,2
9,2
10,2
10,2
10,2
10,2
10,1
10,1
10,1
11,1
11,1
11,2
10,2
9,2
9,2
9,2
8,2
8,2
8,2
8,2
8,2
8,2
8,2
8,2
8,2
8,2
8,2
9,2
10,2
10,2
11,2
11,2
12,2
12,2
12,2
12,2
11,2
11,2
11,2
10,1
10,1
9,1
9,1
10,1
10,1
10,1
10,1
11,1
11,1
11,2
11,2
11,2
11,2
11,2
11,2
11,2
11,2
11,2
12,2
12,2
12,2
13,2
13,2
13,2
13,2
13,2
12,2
12,2
12,2
12,2
12,2
12,2
11,2
11,2
11,2
11,2
11,2
11,2
11,2
11,2
11,2
10,2
10,2
10,2
10,2
10,2
10,2
10,2
10,2
10,2
10,2
10,2
11,2
11,2
11,2
11,2
11,2
10,2
10,2
9,2
9,2
9,2
8,2
8,2
8,2
8,2
8,2
9,2
9,2
9,2
10,2
10,2
10,2
10,2
10,2
10,2
10,2
10,2
10,2
10,2
10,2
10,2
9,2
9,2
9,2
9,2
9,2
9,2
9,2
9,2
9,2
9,2
9,2
9,2
9,2
10,2
11,3
13,4
13,4
15,5
18,6
18,6
24,8
29,10
29,10
34,11
38,12
40,14
41,16
41,16
40,17
39,17
39,17
39,18
38,18
38,18
39,19
41,22
46,25
54,28
57,28
57,28
59,28
60,27
60,27
62,28
62,28
67,31
75,36
75,36
83,40
92,43
92,43
100,47
100,47
100,47
90,49
90,49
86,49
82,49
79,49
82,49
82,49
84,49
90,47
90,47
93,45
93,45
94,45
94,44
94,44
87,40
71,32
71,32
57,26
44,21
33,17
24,14
16,13
12,14
10,17
10,21
10,21
10,29
11,31
12,35
13,41
13,41
14,45
15,47
15,47
16,48
15,46
14,40
14,40
13,30
13,23
13,23
13,23
13,23
12,11
11,6
10,3
10,1
10,1
10,0
10,0
10,0
11,0
11,0
11,0
11,1
11,1
11,1
12,1
12,1
12,1
11,1
11,1
11,2
11,2
11,2
11,2
11,2
11,2
11,2
11,2
11,2
11,2
11,2
11,2
11,2
11,2
11,2
11,2
11,2
11,2
11,2
11,2
11,2
11,2
11,2
11,2
11,2
11,2
11,2
10,2
11,2
11,2
11,2
12,2
12,2
12,2
11,2
11,2
11,2
11,2
12,2
12,2
12,2
11,2
11,2
11,2
10,2
10,2
10,2
10,2
10,2
10,2
11,2
11,2
11,2
12,3
12,3
12,4
12,4
13,4
15,5
15,5
15,5
21,8
24,10
25,13
25,13
25,18
24,23
24,23
22,23
19,22
17,19
16,15
15,12
14,9
13,6
13,6
12,4
11,2
11,2
10,2
10,2
10,1
10,1
10,1
10,1
10,1
10,1
10,1
10,1
10,1
10,1
10,1
10,1
10,1
10,1
10,2
10,2
10,2
10,2
10,2
10,2
10,2
11,2
11,2
11,2
11,2
12,2
12,2
12,2
12,2
12,2
13,3
15,3
15,3
17,4
19,5
19,5
23,6
28,9
28,9
34,11
34,11
46,17
57,23
57,23
65,28
77,37
77,37
87,45
96,52
96,52
106,59
113,67
113,67
123,75
123,75
132,78
145,79
145,79
150,77
147,75
147,75
145,72
145,69
145,69
146,65
155,63
155,63
162,61
161,59
161,59
161,59
161,59
161,59
161,59
150,59
150,59
154,61
154,61
157,63
156,64
156,64
155,63
155,61
155,61
154,60
158,56
158,56
158,55
163,56
163,56
172,57
179,61
179,61
187,64
196,68
196,68
196,70
196,70
197,72
199,72
199,72
198,75
204,78
207,79
207,79
208,79
208,79
202,78
196,79
196,79
196,79
194,80
195,80
189,79
189,79
183,76
181,74
171,67
171,67
171,67
154,56
154,56
140,49
120,40
120,40
92,29
72,22
72,22
54,16
39,11
26,7
26,7
15,3
9,2
9,2
6,1
5,1
5,1
5,1
5,1
6,1
6,1
6,1
7,2
8,3
8,3
9,4
9,5
9,5
10,5
11,5
11,5
12,5
12,5
12,5
12,5
12,4
12,4
12,3
11,3
10,3
10,3
10,2
10,2
10,2
9,2
9,2
8,1
8,1
8,1
8,2
8,2
8,2
9,2
9,2
10,2
10,2
10,2
10,2
10,1
10,1
10,1
10,1
10,1
10,1
10,1
10,1
9,1
9,1
8,2
8,2
8,2
9,2
9,2
10,2
11,2
11,2
12,3
15,4
15,4
17,5
22,8
22,8
28,10
35,14
35,14
46,19
58,25
58,25
58,25
58,25
77,40
86,45
86,45
95,51
103,55
103,55
108,56
110,55
110,55
113,54
114,53
114,53
114,54
120,56
128,58
128,58
131,59
133,59
133,59
133,60
134,62
134,64
134,64
135,64
140,66
140,66
145,66
149,68
149,68
153,68
159,66
158,66
159,66
159,66
158,65
155,63
155,63
158,63
158,63
153,62
153,62
157,63
157,63
157,63
157,63
156,64
155,63
155,63
152,63
154,64
154,64
146,63
144,65
144,65
146,66
146,66
149,66
156,63
156,63
161,59
163,56
163,56
163,53
161,50
161,50
152,47
129,40
107,36
107,36
85,35
67,36
50,44
48,48
48,48
41,56
34,71
33,85
33,85
34,98
34,98
35,112
38,126
38,126
39,135
38,129
38,129
37,115
38,99
38,99
38,99
38,99
55,66
68,58
81,54
81,54
91,53
98,54
98,54
106,61
116,65
124,69
124,69
130,72
140,74
140,74
149,76
149,76
158,79
171,81
192,81
199,79
202,76
202,76
198,77
196,79
196,79
195,80
195,80
191,80
187,78
187,78
181,74
176,72
169,69
169,69
171,67
171,68
171,68
169,67
169,67
171,67
175,65
175,65
177,65
177,65
177,65
175,65
178,65
178,65
171,63
166,59
166,59
149,51
127,42
127,42
104,34
104,34
82,27
62,20
62,20
40,13
27,8
27,8
18,5
13,3
9,1
7,0
7,0
6,0
6,0
7,0
7,0
7,1
7,1
8,1
8,1
8,1
9,1
9,1
9,2
9,2
9,2
8,2
8,2
9,2
9,2
9,2
10,2
10,2
10,2
10,2
10,2
11,2
11,2
11,2
11,2
11,2
10,2
9,2
9,2
9,2
9,2
9,2
9,2
9,2
9,2
9,2
9,2
9,2
9,2
9,2
9,2
9,2
9,2
10,2
10,2
10,2
10,2
10,2
9,2
9,2
9,2
9,2
9,2
9,2
9,2
9,2
9,2
9,2
9,2
9,2
9,2
8,2
8,2
8,2
8,2
8,2
8,2
7,2
7,2
7,2
7,2
7,2
7,2
7,2
7,2
7,2
7,2
7,2
7,2
7,2
7,2
7,2
7,2
7,2
8,2
8,2
8,2
8,2
8,2
9,2
9,2
9,2
9,2
10,2
10,2
11,2
12,2
12,2
13,2
14,2
14,2
14,2
14,2
14,2
13,2
12,2
12,2
12,2
12,2
12,2
12,2
12,2
11,2
11,2
11,2
10,2
10,2
10,2
10,2
10,2
10,2
9,2
9,2
9,2
10,2
10,2
10,2
10,1
10,1
10,1
10,1
10,1
10,1
11,1
11,1
11,1
11,1
12,1
12,1
12,1
12,1
12,1
12,1
11,1
12,1
12,1
12,1
12,2
12,2
12,2
13,2
13,2
13,2
12,2
12,2
12,2
12,2
12,2
12,2
12,2
12,1
12,1
12,1
12,1
12,1
12,1
12,1
11,2
11,2
11,2
11,2
11,2
10,2
10,1
10,1
10,2
10,2
10,2
10,2
10,2
10,2
10,2
11,2
11,2
11,2
11,2
10,2
10,2
10,2
11,2
11,2
11,2
12,2
12,1
12,1
12,1
13,2
13,2
13,2
13,2
13,2
13,2
13,2
13,2
13,2
13,2
13,2
13,2
12,2
12,2
12,2
11,2
10,2
10,2
10,2
9,2
8,2
8,2
9,2
9,2
10,2
10,2
10,2
10,2
10,2
10,2
10,2
10,2
10,2
9,2
9,2
9,2
8,2
9,2
9,2
9,2
9,2
9,2
8,2
8,2
8,2
8,2
8,2
8,2
8,2
9,2
9,2
9,2
9,2
9,2
9,2
9,2
9,2
9,2
10,2
10,2
11,2
11,2
11,2
11,2
11,2
11,2
11,2
11,2
10,1
10,1
10,1
10,1
11,1
12,1
12,1
12,2
13,2
13,2
13,2
13,2
13,2
13,2
13,2
13,2
13,2
13,2
13,2
12,2
12,2
12,2
12,2
12,2
12,2
9,2
9,2
8,2
7,2
7,2
6,2
6,2
7,2
8,2
8,2
8,2
9,2
10,2
10,2
10,2
10,2
10,2
10,2
10,2
10,2
11,2
11,2
12,2
12,2
12,2
11,2
11,2
11,2
10,2
10,2
10,2
10,3
10,3
10,4
11,4
11,4
11,3
12,3
12,3
12,3
13,2
13,2
13,2
13,2
13,2
13,2
13,2
13,2
13,2
12,2
12,2
12,2
12,2
12,2
12,2
13,2
13,2
14,2
14,2
14,2
15,2
16,2
16,2
17,2
17,2
18,2
18,2
19,2
19,2
20,2
20,2
20,2
21,2
21,1
21,1
21,1
21,1
21,1
21,1
21,1
21,1
21,1
20,2
18,2
18,2
18,2
18,2
17,2
16,2
16,2
16,2
15,2
15,2
15,2
15,2
15,2
15,2
15,2
13,2
13,2
13,2
13,2
13,2
13,2
14,2
14,2
14,2
14,2
14,2
14,2
14,2
14,2
13,2
12,2
11,2
11,2
11,2
10,2
10,2
11,2
11,2
11,2
12,2
12,2
12,2
13,2
13,2
13,2
13,2
13,2
13,2
13,2
13,1
13,2
13,2
13,2
13,2
13,2
13,2
13,2
12,2
12,2
12,2
12,2
11,2
11,2
11,2
11,2
11,2
11,2
11,2
12,2
12,2
12,2
12,2
12,2
12,2
12,2
12,2
13,2
13,2
13,2
13,2
13,2
13,2
12,2
12,2
12,2
13,2
13,2
13,2
13,2
14,2
14,2
14,2
14,2
14,2
14,2
14,2
13,2
13,2
13,2
13,2
13,2
13,2
13,2
13,2
13,2
13,2
12,2
12,2
12,2
12,2
12,2
12,2
12,2
12,2
12,2
12,2
12,2
12,2
12,2
12,2
12,2
12,2
12,2
12,2
12,2
12,2
11,2
11,2
11,2
10,2
10,2
11,2
11,2
11,2
11,2
11,2
11,2
11,2
11,2
11,2
11,2
11,2
11,2
11,2
11,2
11,2
11,2
11,2
11,2
11,2
11,2
11,2
11,2
11,2
12,2
12,2
12,2
12,2
13,2
13,2
13,2
12,2
12,2
12,2
11,2
11,2
10,2
9,2
8,2
8,2
8,2
8,2
8,2
9,2
9,2
9,2
9,2
9,2
8,2
8,2
8,2
8,2
8,2
8,2
8,2
8,2
8,2
9,2
9,2
9,2
9,2
9,2
9,2
9,2
8,2
8,2
8,2
7,2
7,2
7,2
8,2
8,2
8,2
8,2
8,2
8,2
8,2
8,2
8,2
8,2
8,2
8,2
7,2
7,2
7,2
6,2
6,2
6,2
6,2
7,2
7,2
7,2
7,2
6,2
6,2
6,2
6,2
7,2
7,2
7,2
7,2
7,2
7,2
7,2
7,2
7,2
7,2
8,2
8,2
8,2
8,2
8,2
8,2
8,2
8,2
8,2
8,2
7,2
7,2
7,2
7,2
7,2
7,2
7,2
7,2
6,2
6,2
6,2
6,2
7,2
7,2
7,2
7,2
7,2
7,2
8,2
8,2
8,2
8,2
9,2
9,2
9,2
9,2
9,2
9,2
8,2
8,2
8,2
8,2
8,2
8,2
8,2
7,2
8,2
8,2
8,2
8,2
8,2
8,2
9,2
9,2
9,2
8,2
8,2
8,2
8,2
8,2
8,2
8,2
8,2
9,2
9,2
9,2
9,2
8,2
8,2
8,2
8,2
8,2
8,2
8,2
8,2
9,2
9,2
9,2
9,2
9,2
10,2
10,2
10,2
10,2
10,2
10,2
10,2
10,2
10,2
10,2
10,2
10,2
10,2
9,2
9,2
8,2
8,2
7,2
7,2
7,2
7,2
7,2
7,2
8,2
8,2
8,2
9,2
9,2
9,2
9,2
9,2
9,2
9,2
9,2
9,2
9,2
9,2
9,2
9,2
9,2
9,2
9,2
9,2
9,2
9,2
9,2
9,2
9,2
9,2
9,2
9,2
9,2
9,2
9,2
9,2
9,2
9,2
9,2
9,2
9,2
9,2
9,2
9,2
9,2
9,2
9,2
9,2
9,2
9,2
9,2
9,2
9,2
9,2
9,2
9,2
9,2
9,2
9,2
9,2
9,2
9,2
9,2
9,2
9,2
9,2
9,2
9,2
9,2
9,2
9,2
9,2
9,2
9,2
9,2
9,2
9,2
9,2
9,2
9,2
9,2
9,2
9,2
9,2
9,2
9,2
9,2
9,2
9,2
9,2
9,2
9,2
9,2
9,2
9,2
9,2
9,2
9,2
9,2
9,2
9,2
9,2
9,2
9,2
9,2
9,2
9,2
9,2
9,2
9,2
9,2
9,2
9,2
9,2
9,2
9,2
9,2
9,2
9,2
9,2
9,2
9,2
9,2
0,0
0,0
13,13
19,18
19,18
22,20
22,19
22,19
21,17
20,14
20,14
17,10
15,7
15,7
14,5
13,4
13,4
12,2
12,1
12,1
11,1
11,1
11,1
11,1
10,1
10,1
10,1
10,2
10,2
11,2
11,2
11,2
12,2
12,2
12,2
12,2
11,2
11,2
10,2
10,2
9,2
9,2
9,2
8,2
8,2
8,2
8,2
8,2
8,2
8,2
8,2
9,2
9,2
9,2
10,2
11,2
11,2
11,2
11,2
11,2
11,2
11,2
11,2
11,2
11,2
12,2
12,2
12,2
13,2
13,2
13,2
13,2
13,2
13,2
13,2
12,2
12,2
12,2
12,2
12,2
12,2
12,2
12,2
10,2
10,2
10,2
10,2
10,2
10,2
9,2
10,2
10,2
10,2
10,2
10,2
10,2
10,2
10,2
10,2
10,2
10,2
10,2
10,2
10,2
10,2
10,2
10,2
10,2
10,2
10,2
11,2
11,2
11,1
11,1
11,1
12,2
12,2
12,2
11,2
11,2
11,2
11,2
11,2
10,2
10,2
10,2
10,2
10,2
10,2
10,2
11,2
11,2
10,2
10,2
10,2
10,2
10,2
10,2
10,2
10,2
10,2
10,2
10,2
10,2
10,2
10,2
10,2
11,2
11,2
11,2
11,2
11,2
11,2
10,2
10,2
10,2
10,2
9,2
9,2
9,2
9,2
9,2
9,2
9,2
9,2
9,2
9,2
9,2
9,2
9,2
9,2
9,2
9,2
10,2
10,2
10,2
10,2
11,2
11,2
10,2
10,2
10,2
10,2
10,2
10,2
9,2
9,2
9,2
9,2
9,2
9,2
10,2
10,2
9,2
9,1
9,1
9,1
9,1
9,1
9,1
9,2
9,2
9,2
9,2
9,2
9,2
10,2
11,2
11,2
11,2
11,2
11,2
11,2
11,2
11,2
11,2
12,2
11,2
11,2
11,2
11,2
11,2
11,2
10,2
10,2
10,2
10,2
10,2
10,2
10,2
10,2
10,2
10,2
10,2
10,2
10,2
10,2
9,1
9,1
9,1
9,2
10,2
10,2
9,2
9,2
10,2
10,2
10,2
10,2
9,2
9,2
9,2
9,2
9,2
9,2
9,2
9,2
9,2
9,2
9,2
8,2
8,2
8,2
7,2
7,2
7,2
7,2
7,2
8,2
8,2
8,2
9,2
9,1
9,1
9,1
10,2
10,2
10,2
11,2
11,2
11,2
11,2
11,2
11,2
10,2
10,2
10,2
9,2
9,2
9,2
9,1
10,1
10,1
10,2
10,2
10,2
11,2
11,2
10,2
10,2
10,2
10,2
10,2
10,2
10,2
10,2
10,2
10,2
10,2
10,2
9,2
9,2
9,2
9,2
9,2
9,2
8,2
8,2
8,2
8,2
8,2
8,2
8,2
8,2
8,2
8,2
8,2
8,2
8,2
8,2
8,2
8,2
8,2
8,2
8,2
8,2
8,2
8,2
8,2
8,2
8,2
8,2
8,2
8,2
8,2
8,2
8,2
8,2
8,2
8,2
8,2
8,2
8,2
9,2
9,2
9,2
9,2
9,2
8,2
8,2
8,2
8,2
8,2
8,2
8,2
8,2
8,2
8,2
8,2
8,2
8,2
9,2
9,2
9,2
9,2
10,2
10,2
10,2
10,2
10,2
10,2
10,2
10,2
9,2
9,2
8,2
8,2
8,2
8,2
8,2
9,2
9,2
9,2
9,2
9,2
9,2
9,2
9,2
8,2
8,2
8,2
7,2
7,1
7,1
7,1
8,1
8,2
8,2
8,2
8,2
8,1
8,1
8,1
8,2
8,2
8,2
8,2
8,2
8,2
8,2
8,2
8,2
8,2
8,2
8,2
8,2
8,2
8,2
9,2
9,2
9,2
10,2
10,2
10,2
10,2
9,2
9,2
9,2
9,2
8,2
8,2
8,2
8,2
8,2
7,2
7,2
7,2
7,2
7,2
7,2
8,2
8,2
8,2
8,2
9,2
9,2
9,2
10,2
10,2
10,2
10,2
10,2
10,2
10,2
10,2
9,2
9,2
8,2
8,2
8,2
8,2
9,2
9,2
9,2
10,2
10,2
10,2
10,2
10,2
9,2
9,2
9,2
9,2
9,2
8,2
8,2
8,2
7,2
7,2
7,2
8,2
8,2
8,2
8,2
8,2
8,2
7,2
7,2
7,2
7,2
7,2
8,2
8,2
8,2
8,2
8,2
9,2
9,2
9,2
9,2
9,2
9,2
9,2
9,2
9,2
9,2
9,2
8,2
8,2
8,2
8,2
7,2
7,2
8,2
8,2
8,2
8,2
8,2
8,2
9,2
9,2
9,2
8,2
8,2
8,2
8,2
8,2
8,1
8,1
8,1
8,2
8,2
8,2
7,2
7,2
7,2
8,2
8,2
8,2
8,2
8,2
8,2
8,2
8,2
8,2
8,2
9,2
9,2
9,2
9,2
9,2
9,2
9,2
9,2
9,2
8,2
8,2
7,2
7,2
7,2
7,2
7,2
7,2
7,2
7,2
7,2
7,2
7,2
7,2
7,2
7,2
7,2
7,2
7,2
7,2
7,2
7,2
7,2
7,2
7,2
8,2
8,2
8,2
8,2
8,2
9,2
9,2
9,2
9,2
9,2
9,2
9,2
9,2
9,2
9,2
9,2
9,2
9,2
9,2
9,2
9,2
10,2
10,2
10,2
9,2
9,2
9,2
10,2
10,2
10,2
10,2
10,2
10,2
10,2
10,2
10,2
9,2
9,2
9,2
8,2
8,2
8,2
8,2
8,2
8,2
8,2
9,2
9,2
8,2
8,1
8,1
8,1
8,1
8,1
7,1
8,1
8,1
8,1
9,1
9,1
9,1
9,1
9,1
9,1
9,1
9,1
9,1
8,1
8,2
8,2
8,2
8,2
8,2
7,2
7,2
7,2
7,2
7,2
7,2
8,2
8,2
8,2
8,2
9,2
9,2
9,2
10,2
10,2
10,2
10,2
10,2
10,2
10,2
10,2
10,2
9,2
10,2
10,2
10,2
10,2
10,2
10,2
10,2
10,2
10,2
9,2
10,2
10,2
10,2
10,2
10,2
10,2
10,2
10,2
10,2
10,2
11,3
12,3
12,3
13,3
13,3
13,3
12,3
12,3
12,3
11,2
11,2
11,2
11,2
11,2
11,2
11,2
11,2
11,2
11,1
11,1
10,1
10,1
10,1
9,1
9,1
9,1
9,1
9,1
9,1
9,2
9,2
9,2
9,2
10,2
10,2
10,2
11,2
11,2
11,3
11,3
11,3
12,2
12,2
12,2
12,2
12,2
12,2
12,2
11,2
11,2
11,2
11,2
10,2
10,2
10,2
9,2
8,2
8,2
8,2
7,2
7,2
7,2
6,2
5,2
5,2
5,2
5,2
5,2
6,2
6,2
6,2
7,2
8,2
8,2
8,2
8,2
9,2
9,2
10,2
10,2
10,2
11,2
11,2
11,2
11,2
11,2
11,2
11,2
11,2
10,2
10,2
10,2
10,2
10,2
9,2
8,2
8,2
8,2
8,2
8,2
8,2
9,2
9,2
9,2
9,2
9,2
10,2
10,2
10,2
10,2
10,2
10,2
11,2
12,2
12,2
12,2
12,2
12,2
12,2
11,2
11,2
11,2
11,2
11,2
11,2
11,2
11,2
11,2
11,2
10,2
10,2
10,2
10,2
10,2
10,2
10,2
10,2
10,2
10,2
10,2
10,2
9,2
10,2
10,2
10,2
10,2
10,2
10,2
10,2
10,2
11,2
12,2
12,2
12,2
12,2
13,2
13,2
13,2
13,2
13,2
13,2
13,2
13,2
12,2
12,2
12,2
11,1
10,1
10,1
10,1
10,1
10,1
10,1
9,1
8,1
8,1
8,1
8,2
8,2
8,2
8,2
8,2
8,2
8,2
8,2
8,2
8,2
8,2
9,2
9,2
9,2
9,2
9,2
9,2
9,2
9,2
9,2
9,2
9,2
9,2
10,2
10,2
10,2
9,2
9,2
9,2
8,2
8,2
8,2
8,2
8,2
8,2
7,2
7,2
7,2
7,2
7,2
8,2
8,2
8,2
8,2
9,1
9,1
10,1
10,1
10,1
10,1
10,1
10,1
10,2
10,2
9,2
9,2
9,2
9,2
9,2
9,2
9,2
9,2
9,2
9,2
10,2
10,2
10,2
10,2
10,2
10,2
10,2
9,2
9,2
8,2
8,2
8,1
8,1
8,1
8,1
9,1
9,1
9,1
9,2
10,2
10,2
10,2
11,2
11,2
11,2
11,2
11,2
11,2
10,2
10,2
10,2
10,2
10,2
10,2
10,2
11,2
11,1
11,2
11,2
11,2
11,2
11,2
11,1
11,2
11,2
11,2
11,2
11,2
11,2
10,2
10,2
10,2
10,2
10,2
10,2
9,2
9,2
9,2
9,2
9,2
9,2
9,2
9,2
9,2
9,2
9,2
9,2
9,2
9,2
10,2
9,2
9,2
9,2
9,2
9,2
9,1
9,1
8,1
8,1
8,1
8,1
8,2
8,2
8,2
9,2
9,2
9,2
10,2
11,2
11,2
11,2
11,2
11,2
11,2
11,2
11,2
12,2
12,2
13,2
14,2
14,2
14,2
13,2
13,2
13,2
13,2
12,2
12,2
12,2
12,2
12,2
11,2
11,2
11,2
11,2
11,2
11,2
10,2
10,2
10,2
10,2
10,2
10,2
10,2
11,2
11,2
11,2
11,2
11,2
11,2
11,2
11,2
11,2
11,2
11,2
11,1
11,1
11,2
11,2
11,2
11,2
11,2
10,2
10,2
10,2
9,2
9,2
9,2
9,2
9,2
9,2
9,2
9,2
9,2
9,2
9,2
9,2
9,2
9,2
9,2
9,2
10,2
10,2
10,2
11,2
11,2
12,2
12,2
12,2
12,2
12,2
12,2
12,2
12,2
12,2
11,2
11,2
11,2
10,2
10,2
10,2
10,2
10,2
9,2
9,2
9,2
9,2
9,2
9,2
8,2
8,2
9,2
9,2
9,2
9,2
9,2
9,2
9,2
9,2
10,2
10,2
10,2
10,2
10,2
10,2
10,2
10,2
10,2
10,2
10,2
10,2
10,2
10,2
10,2
10,2
10,2
11,2
11,2
10,2
10,2
10,2
10,2
9,2
9,2
9,2
8,2
8,2
8,2
9,2
9,2
9,2
9,2
9,2
9,2
9,2
9,2
9,2
9,2
9,2
9,2
9,2
9,2
10,2
10,2
10,2
10,2
11,2
11,2
11,2
11,2
11,2
10,2
10,2
10,2
10,2
10,2
10,2
10,2
10,2
10,2
10,2
10,2
10,2
10,2
10,2
10,2
10,2
10,2
10,2
10,2
11,2
11,2
11,2
11,2
11,2
10,2
10,2
10,2
10,2
10,2
10,2
10,2
9,2
9,2
9,2
9,2
9,2
11,2
11,2
11,2
11,2
11,2
11,2
10,2
10,2
10,2
10,2
10,2
10,2
10,2
10,2
10,2
10,2
10,2
10,2
11,2
11,2
11,2
10,2
10,2
10,2
10,2
10,2
10,2
10,2
10,2
10,2
9,2
9,2
9,2
9,2
9,2
9,2
9,2
9,2
9,2
9,2
9,2
9,2
9,2
10,2
10,2
9,2
9,2
9,2
9,2
9,2
9,2
9,2
9,2
9,2
9,2
9,2
9,2
10,2
10,2
10,2
10,2
10,2
10,2
10,2
11,2
11,2
11,2
12,2
11,2
11,2
11,1
11,1
11,1
10,1
10,1
9,1
9,2
9,2
9,2
9,2
9,2
10,2
10,2
10,2
10,2
11,2
10,2
10,2
10,2
9,2
9,2
9,2
9,2
10,1
10,1
10,2
10,2
10,2
10,2
10,2
10,2
10,2
10,2
10,2
10,2
10,2
10,1
10,1
10,1
10,1
10,1
10,1
10,1
10,1
10,1
10,1
10,2
11,2
11,2
11,2
11,2
11,2
11,2
11,2
11,2
11,2
11,2
11,2
10,2
10,2
10,2
10,2
10,2
10,2
10,2
10,2
10,2
10,2
9,2
9,2
9,2
9,2
9,2
9,2
10,2
10,2
10,2
10,2
10,2
10,2
10,2
10,2
10,2
10,2
11,1
11,1
11,1
11,1
11,1
11,2
11,2
11,2
11,2
11,2
11,2
11,2
10,2
10,2
10,2
10,2
10,2
10,2
10,2
9,2
9,2
9,2
9,2
9,2
10,1
10,1
10,1
10,1
10,1
10,1
10,1
10,1
9,2
9,2
9,2
9,2
9,2
9,2
9,2
9,2
9,2
10,2
10,2
10,2
10,2
10,2
10,2
10,2
11,2
11,2
11,2
11,2
11,2
11,2
11,2
11,2
11,2
11,2
11,2
10,2
10,2
10,2
10,2
10,2
10,2
10,2
10,2
11,2
11,2
11,2
11,2
11,2
10,2
10,2
10,2
10,2
9,1
8,2
8,2
8,2
8,2
8,2
8,2
8,2
8,2
8,2
8,2
9,2
9,2
9,2
9,2
9,2
9,2
9,2
10,1
10,1
10,1
11,1
11,1
11,1
11,1
11,2
11,2
11,2
11,2
10,1
10,1
10,1
10,1
10,1
10,1
10,1
10,1
11,1
12,2
12,2
12,2
12,2
12,2
12,2
12,2
12,2
11,2
11,2
10,2
10,2
10,2
10,2
10,2
10,2
10,2
10,2
10,2
10,2
10,2
10,2
10,2
10,1
10,1
9,1
9,2
10,2
10,2
10,2
10,2
9,2
9,2
9,2
9,2
9,2
8,2
8,2
7,2
7,2
7,2
7,2
7,2
7,2
8,1
9,1
9,1
10,2
10,2
10,2
10,2
10,2
10,2
10,1
9,1
9,1
9,2
9,2
8,2
8,2
8,2
9,2
9,2
9,2
9,2
9,2
9,2
9,2
10,2
10,2
10,2
10,2
10,2
10,2
10,2
10,2
10,2
10,2
9,2
9,2
9,2
9,2
9,2
9,2
10,2
11,2
11,2
11,2
12,2
12,2
12,2
12,2
12,2
12,2
11,2
11,2
10,2
10,2
10,2
10,2
10,2
10,2
10,2
9,2
9,2
9,2
9,2
9,2
8,2
8,2
8,2
8,2
8,2
8,2
9,2
9,2
9,2
10,2
11,2
12,2
12,2
12,2
12,2
12,2
11,2
11,2
11,2
10,2
10,2
10,2
10,2
10,2
10,2
10,2
10,2
10,2
10,2
10,2
10,2
10,2
11,2
11,2
11,2
11,2
11,2
11,2
11,2
11,2
11,2
11,2
11,2
11,2
11,2
11,2
11,2
12,2
12,2
12,2
12,2
12,2
12,2
11,2
11,2
11,2
11,2
11,2
11,2
11,2
11,2
11,2
11,2
11,2
11,2
11,2
11,2
11,2
11,2
11,2
11,2
0,0
2,0
2,0
3,0
4,1
4,1
5,1
7,1
7,1
8,2
9,2
10,2
10,2
10,2
11,2
11,2
11,2
12,2
12,2
12,2
12,2
12,2
12,2
12,2
12,2
12,2
13,2
13,2
13,2
13,2
13,2
13,2
12,2
11,1
10,2
10,2
9,2
8,2
8,2
8,2
8,2
8,2
8,2
8,2
8,2
8,2
10,2
11,2
11,2
11,2
11,2
11,2
11,2
11,2
10,2
10,2
10,2
9,2
9,2
8,2
8,2
8,2
8,2
8,2
8,2
8,2
7,2
7,2
7,2
8,2
8,2
8,2
9,2
9,2
10,2
10,2
10,2
10,2
11,2
11,2
11,2
10,2
10,2
10,1
10,1
10,1
11,1
11,1
11,2
11,2
11,2
11,2
11,2
11,2
11,2
11,2
11,2
11,2
11,2
11,2
10,2
10,2
10,2
10,2
10,2
10,2
10,2
10,2
11,2
11,2
11,2
11,2
11,2
11,2
11,2
11,2
11,2
11,1
12,2
12,2
12,2
12,2
12,2
11,2
11,2
11,2
11,2
11,2
11,2
11,2
10,2
10,2
10,2
9,2
9,2
9,2
9,2
9,2
9,2
9,2
9,2
10,2
10,2
10,2
10,2
10,2
11,2
11,2
11,2
12,2
12,2
12,2
11,2
11,2
11,2
10,2
10,2
10,2
10,2
9,2
9,2
9,2
9,2
9,2
9,2
9,2
9,2
8,2
8,2
8,2
8,2
8,2
8,2
8,2
8,2
8,2
8,2
8,2
8,2
8,2
8,2
8,2
9,2
9,2
9,2
9,2
9,2
9,2
9,2
10,2
10,2
10,2
10,2
10,2
10,2
11,2
11,2
11,2
11,2
12,2
12,2
12,2
12,2
12,2
11,2
11,2
11,2
10,2
10,2
10,2
10,2
11,2
11,2
11,2
11,2
11,2
11,2
11,2
11,2
11,2
10,1
10,1
10,1
10,1
10,1
10,2
10,2
10,2
10,2
10,2
10,2
10,2
11,2
11,2
11,2
11,2
11,2
11,2
11,2
11,2
11,2
11,2
10,2
10,2
10,2
9,2
9,2
9,2
9,2
10,2
10,2
10,2
10,2
10,2
10,2
10,2
10,2
10,2
10,2
10,2
10,2
10,2
10,2
10,2
10,2
10,2
10,2
10,2
11,2
11,2
11,2
11,2
11,2
11,2
11,2
11,2
12,2
12,2
12,2
12,2
12,2
12,2
12,2
12,2
12,2
11,2
11,2
11,2
10,1
10,1
10,1
10,1
10,1
10,2
10,2
11,2
11,2
11,2
11,2
10,2
9,2
8,2
8,2
8,2
8,2
8,2
8,2
9,2
10,2
10,2
10,2
10,2
10,2
11,2
11,2
11,2
12,2
12,2
12,2
12,2
12,2
12,2
12,2
12,2
12,2
12,2
12,2
11,2
11,2
11,2
11,2
11,2
11,2
11,1
11,1
11,1
11,1
11,1
10,1
10,2
10,2
10,2
10,2
10,2
10,2
10,2
10,2
10,2
10,2
10,2
10,2
10,2
10,2
10,2
10,2
9,2
9,2
9,2
9,2
10,2
10,2
10,2
10,2
10,2
10,2
10,2
10,2
10,2
10,2
9,2
9,2
9,2
9,2
10,2
10,2
9,2
9,2
9,2
9,2
9,2
9,2
9,2
9,2
8,2
8,2
9,2
9,2
9,2
9,2
9,2
9,2
8,2
8,2
9,2
9,2
9,2
9,2
9,2
9,2
10,2
10,2
10,2
10,2
10,2
10,2
10,2
10,2
10,2
11,2
10,2
10,2
10,2
10,2
10,2
9,2
9,2
10,2
10,2
9,2
9,2
9,2
9,2
9,2
9,2
10,2
10,2
10,2
10,2
10,2
10,2
10,2
10,2
10,2
10,2
10,2
10,2
10,2
10,2
10,2
10,2
10,2
11,2
11,2
11,2
11,2
11,2
11,2
10,2
9,2
9,2
9,2
9,2
10,2
10,2
10,2
10,2
9,2
9,2
9,2
9,2
9,2
9,2
10,2
10,2
10,2
11,2
11,2
11,2
11,2
11,2
11,2
11,2
11,2
11,2
10,2
10,2
10,2
11,2
11,2
12,2
15,3
15,3
21,4
26,5
32,7
36,9
40,12
48,18
48,18
53,24
59,31
59,31
67,36
73,41
73,41
74,44
77,48
77,48
81,53
83,58
83,60
83,60
83,61
82,59
78,55
78,55
79,51
81,49
81,49
78,46
78,46
73,43
69,40
58,33
58,33
58,33
58,33
38,20
29,14
29,14
22,9
18,7
18,7
14,4
11,2
11,2
8,1
8,0
8,0
8,0
9,1
9,1
9,1
10,1
10,2
10,2
10,2
10,2
9,2
9,2
9,2
9,2
10,2
10,2
10,2
10,2
9,2
9,2
9,2
8,2
8,2
8,2
7,2
7,2
7,2
7,2
7,2
7,2
7,2
7,2
7,2
7,2
7,2
8,2
9,2
9,2
9,2
10,2
10,2
10,2
10,2
10,2
10,2
10,2
10,2
10,2
9,2
9,2
9,2
9,2
9,2
9,2
9,2
9,2
9,2
9,2
9,2
9,2
9,2
9,2
9,2
9,2
10,2
10,2
10,2
11,2
11,2
12,2
12,2
12,2
12,2
12,2
11,2
11,2
11,2
11,2
10,2
10,2
10,2
10,2
10,2
10,2
10,2
11,2
10,2
10,2
10,2
10,2
10,2
9,2
9,2
10,2
10,2
11,2
11,3
11,3
11,3
11,3
11,3
11,3
11,3
12,3
12,3
12,3
13,3
13,3
15,4
16,5
16,5
16,5
17,6
17,6
19,6
21,8
21,8
23,10
28,13
33,16
33,16
33,16
57,28
76,36
76,36
95,44
127,52
127,52
144,59
155,66
155,66
159,70
163,74
163,74
159,76
157,78
157,78
160,78
161,76
167,77
167,77
172,74
178,73
182,71
184,67
183,64
179,61
176,61
171,62
163,62
163,65
162,67
161,67
160,67
161,65
161,65
159,65
161,64
161,64
164,66
164,66
164,66
167,71
167,71
164,73
162,75
162,75
162,76
154,74
154,74
153,74
147,72
147,72
139,71
133,70
133,70
130,69
128,68
128,65
128,65
135,62
139,61
139,61
142,60
147,58
147,58
147,56
149,55
149,55
146,53
142,52
141,53
141,53
138,55
133,58
134,60
130,59
122,56
118,54
118,54
113,51
110,48
110,47
110,47
110,47
91,36
91,36
76,29
63,23
63,23
50,18
37,12
37,12
30,9
23,6
18,4
15,2
13,1
13,1
11,1
10,1
10,1
9,1
9,1
9,1
9,2
9,2
9,2
10,2
10,3
10,3
10,4
10,5
9,5
9,5
9,5
9,5
9,5
9,4
9,4
10,3
10,2
11,2
10,2
10,2
10,2
9,2
9,2
9,2
9,2
9,2
9,2
8,2
8,2
8,2
8,2
8,2
9,2
9,2
9,2
10,2
10,2
10,2
10,2
10,2
10,2
10,2
10,2
10,2
11,2
11,2
10,2
10,2
10,2
9,2
8,2
7,2
7,2
7,2
7,2
7,2
7,2
7,2
8,2
8,2
8,2
8,2
9,2
10,2
10,2
10,2
10,2
10,2
10,2
10,2
10,2
10,2
10,2
10,2
10,2
10,2
10,2
10,2
10,2
10,2
10,2
9,2
9,2
9,2
9,2
9,2
9,2
9,2
9,2
9,2
9,2
9,2
8,2
9,2
9,2
9,2
9,2
9,2
9,2
9,2
9,2
9,2
9,2
9,2
9,2
9,2
9,2
9,2
9,2
9,2
9,2
10,2
10,2
10,2
10,2
9,2
9,2
9,2
9,2
9,2
10,2
10,2
10,2
10,2
10,2
10,2
10,2
10,2
10,2
10,2
9,2
9,2
9,2
9,2
9,2
9,2
9,2
9,2
9,2
9,2
9,2
9,2
9,2
9,2
9,2
9,2
9,2
10,2
10,2
10,2
10,2
10,2
10,2
10,2
10,2
10,2
10,2
11,2
11,2
11,2
10,2
10,2
10,2
9,2
9,2
9,2
9,2
9,2
9,2
9,2
9,2
9,2
9,2
9,2
10,2
11,2
11,2
11,2
11,2
11,2
10,2
9,2
9,2
8,2
8,2
8,2
9,2
9,2
9,2
9,2
9,2
9,2
9,2
9,2
9,2
9,2
9,2
9,2
9,2
10,2
10,2
10,2
9,2
9,2
9,2
9,2
9,2
9,2
9,2
9,2
9,2
9,2
9,2
9,2
10,2
10,2
10,2
10,2
10,2
10,2
10,2
10,2
10,2
10,2
10,2
11,2
11,2
11,2
10,2
10,2
10,2
10,2
10,2
10,2
10,2
10,2
10,2
10,2
10,2
10,2
10,2
10,2
10,2
10,2
10,2
10,2
10,2
10,2
10,2
10,2
10,2
10,2
10,2
10,2
10,2
10,2
10,2
10,2
10,2
10,2
10,2
10,2
9,2
9,2
9,2
9,2
9,2
10,2
10,2
10,2
10,2
10,2
10,2
10,2
10,2
10,2
10,2
10,2
10,2
10,2
10,2
10,2
10,2
10,2
10,2
10,2
10,2
10,2
10,2
9,2
9,2
9,2
9,1
8,1
8,1
8,1
9,1
9,1
9,1
10,1
10,2
10,2
10,2
10,2
10,2
10,2
10,2
10,2
9,2
9,2
9,2
9,2
9,2
9,2
9,2
9,2
9,2
9,2
9,2
9,2
9,2
9,2
9,2
9,2
9,2
10,2
10,2
10,2
10,2
10,2
10,2
10,2
10,2
11,2
11,2
11,2
11,2
11,2
11,2
11,2
10,2
10,2
10,2
10,2
10,2
10,2
9,2
9,2
9,2
8,2
8,2
8,2
8,2
8,2
8,2
8,2
9,2
9,2
10,2
10,2
10,2
10,2
10,2
10,2
10,2
10,2
10,2
9,2
9,2
9,2
8,2
8,2
8,2
7,2
7,2
7,2
7,2
8,2
8,2
9,2
9,2
10,2
11,3
13,3
13,3
14,4
16,5
18,6
18,6
22,8
24,9
24,9
27,10
27,10
29,12
32,15
32,15
34,18
36,20
36,20
38,22
42,23
46,26
50,29
55,32
55,32
58,33
59,34
59,33
57,34
57,34
55,35
54,35
52,35
52,35
53,34
54,33
54,33
54,33
54,33
52,30
52,29
52,29
52,27
48,24
48,24
42,20
35,17
35,17
28,13
20,9
20,9
15,6
11,4
9,3
9,3
8,2
6,1
6,1
6,1
6,1
6,1
6,1
6,1
7,1
8,1
8,1
8,2
9,2
9,2
10,2
10,2
10,2
10,2
11,2
11,2
11,2
11,2
11,2
10,2
10,2
10,2
10,2
10,2
10,2
10,2
10,2
11,2
11,2
11,2
12,2
12,2
11,2
11,2
10,1
10,1
9,1
9,1
9,1
9,1
9,2
10,2
10,2
10,2
10,2
10,2
10,2
10,2
10,2
10,2
10,2
10,2
10,2
10,2
9,1
9,1
9,2
10,2
10,2
10,2
10,2
10,2
9,2
9,2
8,2
8,2
8,2
8,2
8,2
8,2
8,2
8,2
8,2
8,2
9,2
9,2
9,2
10,2
10,2
10,2
11,2
11,2
11,2
11,2
11,2
11,2
11,2
11,2
11,2
11,2
11,2
10,2
9,1
9,1
9,2
9,2
9,2
9,2
9,2
9,2
10,2
10,2
9,2
9,2
9,2
9,2
9,2
9,2
9,2
9,2
9,2
9,2
9,2
9,2
9,2
9,2
9,2
10,2
10,2
10,2
10,2
9,2
9,2
9,2
9,2
9,2
9,2
9,2
9,2
8,2
9,2
9,2
9,2
9,2
9,2
9,2
9,2
9,2
9,2
9,2
9,2
9,2
9,2
9,2
9,2
9,2
9,2
9,2
9,2
10,2
10,2
10,2
10,2
10,2
10,2
10,2
10,2
10,2
10,2
10,2
10,2
10,2
10,2
10,2
10,2
9,2
9,2
9,2
9,3
9,3
9,4
9,4
11,5
13,6
16,7
20,9
27,13
36,18
48,24
70,36
87,46
104,56
104,56
124,66
146,79
146,79
159,83
159,83
170,85
175,86
175,86
178,86
180,85
180,85
183,85
184,88
184,88
185,90
187,91
187,91
192,97
192,99
196,99
196,99
196,99
196,99
196,99
213,88
213,88
217,88
224,92
224,92
234,96
237,100
237,100
232,99
232,99
229,100
219,98
219,98
202,93
202,93
197,90
195,86
195,86
195,82
192,77
192,77
193,73
195,72
194,72
194,72
194,73
198,75
198,75
198,77
198,79
198,79
192,80
180,80
180,80
174,80
169,81
169,81
166,83
166,80
163,77
163,77
163,77
164,76
164,76
162,74
168,71
168,71
179,73
179,73
194,74
194,74
212,75
212,75
215,77
211,77
211,77
207,78
199,78
188,79
188,79
187,80
186,77
186,77
183,75
182,73
182,73
176,70
176,70
170,67
166,65
166,65
162,62
152,59
152,59
141,56
126,49
126,49
108,42
91,34
77,29
63,23
46,17
46,17
35,14
27,11
27,11
27,11
27,11
18,7
14,5
14,5
12,4
11,3
11,3
9,2
8,2
8,2
7,2
7,2
7,2
8,2
8,2
9,2
9,2
9,2
9,2
9,2
9,2
9,2
9,2
9,2
9,2
9,2
9,2
9,2
9,2
10,2
10,2
10,2
10,2
10,2
9,2
8,2
8,2
8,2
8,2
8,2
8,2
8,2
8,2
9,2
9,2
10,2
10,2
10,2
9,2
9,2
9,2
9,2
9,2
9,2
9,2
8,2
9,2
9,2
9,2
9,2
10,2
10,2
10,2
10,2
11,2
11,2
11,2
11,2
11,2
10,2
10,2
9,2
9,2
9,2
8,2
8,2
8,2
8,2
8,2
8,2
7,2
7,2
7,2
7,2
7,2
7,2
7,2
7,2
7,2
7,2
7,2
7,2
8,2
8,2
8,2
8,2
8,2
8,2
9,2
9,2
9,2
9,2
10,2
10,2
11,2
11,2
11,2
10,2
10,2
10,2
9,2
9,2
9,2
9,2
10,2
10,2
10,2
9,2
9,2
9,2
9,2
9,2
9,2
9,2
9,2
9,2
9,2
9,2
9,2
9,2
10,2
10,2
10,2
10,2
9,2
9,2
9,2
8,2
8,2
8,2
7,2
7,2
7,2
7,2
7,2
7,2
7,2
7,2
7,2
7,2
6,2
6,2
6,2
7,2
7,2
7,2
7,1
7,1
7,1
8,1
8,1
8,1
9,1
9,1
9,2
10,2
10,2
10,2
10,2
10,2
8,2
8,2
8,2
8,2
8,2
8,2
8,2
8,2
8,2
8,2
8,2
8,2
8,2
8,2
8,2
8,2
8,2
8,2
8,2
8,2
8,2
7,2
7,2
7,2
7,2
7,2
7,2
7,2
7,2
7,2
7,2
7,2
7,2
7,2
7,2
8,2
8,2
9,2
9,2
9,2
9,2
8,2
8,2
8,2
8,2
8,2
8,2
8,2
8,1
8,1
8,1
7,1
7,1
7,1
7,1
8,1
9,1
9,1
10,2
10,2
10,2
10,2
10,2
10,2
9,2
9,2
9,2
9,2
9,2
9,2
8,2
8,2
8,2
8,2
8,2
8,2
8,2
8,2
7,2
7,2
6,2
6,2
6,2
6,2
6,2
6,2
7,2
7,2
8,2
8,2
8,2
8,2
8,2
8,2
8,2
7,2
7,2
7,2
7,2
7,2
7,2
9,2
9,2
11,2
14,3
14,3
16,3
17,3
16,3
15,3
13,3
11,2
10,2
10,2
9,2
8,2
8,2
7,2
7,2
6,2
6,1
6,1
6,1
7,1
7,1
8,1
9,1
9,1
9,1
10,2
10,2
9,2
9,1
9,2
9,2
9,2
9,2
8,1
7,1
7,1
6,1
5,1
5,1
5,1
5,1
5,1
4,1
4,2
4,2
5,2
5,2
5,2
5,2
6,2
6,2
6,2
7,2
7,2
7,2
8,2
8,2
9,2
10,2
10,2
10,2
10,2
10,2
10,2
10,2
10,2
10,2
11,2
11,2
12,2
12,2
12,2
12,2
12,2
13,2
13,2
13,2
13,2
13,2
12,2
12,2
12,2
12,1
12,1
12,1
11,1
11,1
11,1
11,1
11,2
11,2
10,2
10,2
10,2
11,2
11,2
11,2
11,2
11,2
11,2
11,2
11,2
10,2
9,2
9,2
9,2
9,2
9,2
9,2
9,2
9,2
8,2
8,2
8,2
8,2
8,2
9,2
9,2
9,2
9,2
9,2
9,2
9,2
10,2
10,2
9,2
9,2
9,2
9,2
10,2
10,2
10,2
10,2
10,2
10,2
10,2
10,2
10,2
10,2
10,2
10,1
10,1
9,1
9,1
8,2
8,2
8,1
8,1
8,1
8,1
8,1
8,2
8,2
8,2
8,2
8,2
9,2
9,2
9,2
9,2
9,2
10,2
10,2
10,2
10,2
9,2
9,2
9,2
9,2
10,2
10,2
10,2
10,2
9,2
9,2
9,2
9,1
9,1
9,1
9,2
9,2
9,2
9,2
8,2
8,2
8,2
8,2
8,2
8,2
8,2
7,2
8,2
8,2
8,2
7,2
7,2
7,2
7,2
7,2
7,2
7,2
7,2
7,2
7,2
7,1
7,1
7,1
7,1
7,2
7,2
7,2
7,2
7,2
8,2
8,2
8,2
8,2
8,2
8,2
8,2
8,2
8,2
7,2
7,2
8,2
8,2
8,2
8,2
8,2
8,2
8,2
8,2
8,2
8,2
8,2
8,2
8,2
8,2
8,2
7,2
7,2
7,2
7,2
7,2
7,2
7,2
7,2
6,2
7,1
7,1
7,1
7,1
7,1
6,1
6,1
6,1
7,1
7,1
7,1
7,1
7,1
7,1
7,1
7,1
7,1
7,1
7,1
6,2
6,2
6,2
6,2
6,2
6,2
7,2
7,2
7,2
7,2
7,2
7,2
8,2
8,2
9,2
9,2
9,2
9,2
9,2
9,2
9,2
9,2
9,1
9,1
9,1
9,2
9,2
9,2
9,2
8,2
8,2
8,2
8,2
8,2
8,2
8,2
8,2
9,2
9,2
9,2
9,2
9,2
9,2
9,2
9,2
9,2
9,1
10,1
9,1
9,1
9,1
8,1
8,1
8,1
8,1
8,1
8,1
8,2
8,2
8,2
8,2
8,2
8,2
8,2
8,2
8,2
8,2
8,2
8,2
9,2
9,2
9,2
9,2
9,2
8,2
8,2
8,2
8,2
8,2
8,2
8,2
8,2
8,2
9,2
9,2
9,2
9,2
9,2
9,2
9,2
9,2
9,2
9,2
10,2
10,2
10,2
11,3
12,3
15,4
19,5
24,6
24,6
31,8
31,8
42,12
51,16
51,16
61,22
70,28
78,36
89,44
98,52
105,60
105,60
108,66
106,70
105,70
105,70
111,69
121,69
121,69
131,72
139,74
139,74
143,75
147,76
148,79
148,79
148,79
148,79
166,88
169,90
169,90
177,94
190,97
190,97
202,99
216,101
216,101
226,105
239,105
238,103
235,104
230,102
231,102
231,102
229,96
229,96
226,89
230,86
230,86
232,85
231,85
231,85
234,87
222,90
222,90
211,89
200,89
200,89
191,91
187,92
173,91
173,91
171,90
171,90
167,86
167,84
167,82
167,82
175,83
175,83
195,81
195,81
202,79
202,77
202,77
197,76
188,75
188,75
184,72
184,72
175,68
166,64
166,64
153,60
142,54
129,47
129,47
111,39
97,33
85,28
71,23
52,16
39,12
29,8
20,6
13,4
13,4
7,2
5,1
5,1
5,1
4,1
4,1
4,1
4,1
5,1
5,1
5,2
5,2
5,2
6,2
6,2
7,2
8,2
9,2
9,2
9,2
9,2
9,2
9,2
9,2
10,2
10,2
10,2
10,2
10,2
10,2
10,2
10,2
9,2
9,2
9,2
9,2
9,2
9,2
9,2
10,2
10,2
10,2
10,2
10,2
10,2
10,2
10,2
10,2
10,2
10,2
10,2
10,2
10,2
9,2
9,2
9,2
9,2
9,2
9,2
9,1
9,1
9,1
9,1
9,1
9,2
8,2
8,2
8,2
8,2
8,2
8,2
8,2
8,2
8,2
8,2
8,2
8,2
9,2
9,2
9,2
9,2
9,2
9,2
9,2
10,2
10,2
10,2
11,2
12,2
12,2
12,2
11,2
10,2
10,2
10,2
10,2
10,2
9,2
9,2
9,2
9,2
9,2
10,2
10,2
10,2
10,2
10,2
10,2
10,2
10,2
9,2
9,2
9,2
10,2
10,2
10,2
10,2
9,2
9,2
9,2
8,2
8,2
8,2
8,2
8,2
8,2
8,2
8,2
9,2
9,2
9,2
9,2
9,2
9,2
9,2
9,2
9,2
9,2
9,2
9,2
9,2
9,2
9,2
9,2
9,2
10,2
10,2
11,2
11,2
11,2
11,2
10,2
9,2
9,2
8,2
8,2
8,2
8,2
8,2
8,2
8,2
7,2
7,2
7,2
7,2
7,2
8,2
8,2
8,2
8,2
8,2
8,2
8,2
8,2
9,1
9,1
9,1
9,1
9,1
8,2
8,2
8,2
8,2
8,2
8,2
9,2
9,2
9,2
10,2
10,2
10,2
10,2
10,2
10,2
10,2
10,2
10,2
9,2
9,2
9,2
10,1
10,1
9,1
9,1
9,1
9,1
9,1
9,1
9,1
9,1
9,1
9,1
8,1
8,1
8,1
8,1
8,1
8,2
8,2
8,2
8,2
9,2
9,2
9,2
9,2
9,2
9,2
9,2
9,2
9,2
9,2
9,2
9,2
9,2
9,2
9,2
9,2
9,2
9,2
9,2
9,2
10,2
10,2
10,2
10,2
10,2
9,2
9,2
9,2
9,2
9,2
9,2
9,2
9,2
10,2
10,2
10,2
10,2
10,2
10,2
10,2
9,2
9,2
9,2
9,2
9,2
9,2
8,2
8,2
8,2
8,2
7,2
7,2
7,2
8,2
8,2
8,2
8,2
8,2
9,2
10,2
10,2
10,2
10,2
11,2
11,2
11,2
11,2
10,2
10,2
9,2
9,2
8,2
8,2
8,2
8,2
9,2
9,2
9,2
9,2
9,2
9,2
9,1
9,1
9,1
9,2
9,2
9,2
9,2
9,2
9,2
9,2
9,2
9,2
9,2
9,2
9,2
9,2
9,2
9,2
9,2
9,2
9,2
9,2
9,2
10,2
10,2
10,2
11,2
11,2
11,2
11,2
12,2
12,2
12,2
11,2
11,2
10,2
9,2
9,2
9,2
9,2
10,2
10,2
10,2
10,2
10,2
10,2
10,2
10,2
9,2
9,2
8,2
8,2
9,2
9,2
9,2
9,2
8,2
8,2
8,2
8,2
8,2
8,2
9,2
9,2
9,2
9,2
9,2
9,2
9,2
9,2
9,2
9,2
9,2
9,2
9,2
9,2
9,2
9,2
9,2
9,2
9,2
8,2
8,2
8,2
8,2
8,2
8,2
8,2
8,2
8,2
7,1
7,1
7,1
7,1
7,1
7,1
7,1
8,1
8,2
8,2
8,2
9,2
9,2
9,2
9,2
9,2
8,2
8,2
7,2
7,2
7,2
7,2
7,2
7,2
7,2
7,2
7,2
7,2
7,2
7,2
7,2
7,2
7,2
8,2
8,2
8,2
9,2
9,2
9,2
9,2
9,2
9,2
9,2
9,2
9,2
9,2
9,2
9,2
9,2
8,2
8,2
8,2
7,2
7,2
7,2
8,2
8,2
8,2
8,2
8,2
8,2
9,2
9,2
9,2
9,2
9,2
9,2
8,2
8,2
8,2
8,2
8,2
8,2
9,2
9,2
9,2
9,2
9,2
9,2
9,2
9,2
9,2
9,2
9,2
9,2
9,2
9,2
10,2
10,2
10,2
10,2
10,2
10,2
10,2
10,2
10,2
10,2
10,2
10,2
10,2
10,2
9,2
9,2
9,2
9,2
9,2
9,2
9,2
9,2
9,2
10,2
10,2
10,2
10,2
11,2
11,2
11,2
12,2
13,3
13,3
13,3
13,3
12,3
12,3
11,3
11,3
11,3
10,3
10,3
10,3
11,3
12,3
12,3
13,3
14,4
14,4
16,4
19,6
19,6
22,7
24,9
24,9
26,11
29,15
29,15
34,20
38,25
42,28
42,28
45,30
48,32
48,34
49,34
51,36
54,38
56,38
56,38
57,37
60,38
60,38
63,39
64,40
64,40
64,40
64,40
64,40
69,40
69,40
69,42
68,42
68,42
67,41
67,42
67,41
67,41
65,39
61,35
57,33
53,32
53,31
52,30
53,31
54,32
61,36
66,39
68,42
68,42
74,49
77,53
79,57
79,57
82,57
85,57
85,57
91,57
98,57
103,57
106,57
104,56
100,55
99,56
99,56
99,56
92,55
92,55
91,54
89,52
89,52
88,50
87,48
90,47
92,47
93,47
97,46
97,46
101,48
101,48
106,49
108,50
108,50
107,51
104,51
104,51
104,51
103,51
99,51
99,50
93,48
96,47
96,47
98,45
99,46
101,47
103,51
101,54
105,58
108,61
111,64
111,64
113,64
113,64
113,64
107,60
104,57
99,54
99,54
93,51
92,49
92,49
88,48
84,47
84,47
89,53
95,55
102,57
102,57
109,59
111,59
113,59
113,60
113,60
112,61
111,59
112,57
113,57
113,57
108,55
110,55
110,55
115,54
118,54
118,54
123,53
127,55
130,59
130,63
131,64
131,64
131,64
131,64
131,64
131,64
131,71
131,73
131,73
131,76
126,75
126,75
119,71
118,69
118,66
119,64
119,64
117,64
118,65
118,65
120,67
119,69
119,69
120,74
125,76
125,76
125,76
126,75
126,75
134,75
139,74
142,73
144,70
145,69
145,69
151,70
156,66
156,66
154,64
147,60
142,57
142,57
135,56
126,56
126,56
119,57
111,58
111,58
99,51
94,46
94,46
85,40
70,31
70,31
58,25
47,20
36,15
36,15
28,11
18,7
18,7
14,5
11,3
9,3
8,3
8,4
8,5
9,6
9,6
9,7
10,7
10,7
10,8
10,8
10,8
9,8
9,8
9,8
10,7
10,6
10,5
10,4
10,3
10,2
10,2
9,2
9,2
9,1
9,1
10,1
10,2
10,2
10,2
10,2
10,2
10,2
10,2
10,2
10,2
11,2
11,2
11,2
11,2
11,2
11,2
11,2
11,2
11,2
11,2
10,2
10,2
10,2
10,2
9,2
9,2
9,2
9,2
8,2
8,2
9,2
9,2
9,2
9,2
10,2
10,2
10,2
11,2
11,2
11,2
11,2
11,2
10,2
9,2
9,2
9,2
9,2
8,2
8,2
8,2
8,2
8,2
8,2
9,2
9,2
9,2
10,2
10,2
10,2
10,2
10,2
9,2
10,2
10,2
10,2
9,2
9,2
10,2
10,2
10,2
10,2
10,2
10,2
10,2
10,2
10,2
10,2
10,2
10,2
10,2
10,2
10,2
10,2
10,2
10,2
10,2
10,2
10,2
10,2
10,2
10,2
10,2
10,2
10,2
10,2
10,2
10,2
11,2
10,2
10,2
10,2
10,2
10,2
10,2
9,2
9,2
9,2
9,2
9,2
9,2
8,2
8,2
8,2
8,2
8,2
8,2
8,2
8,2
8,2
8,2
8,2
8,2
8,2
9,2
9,2
9,2
10,2
10,2
10,2
10,2
10,2
10,2
10,2
10,2
9,2
9,2
9,2
8,2
8,2
8,2
7,2
7,2
7,2
8,2
8,2
8,2
8,2
9,2
9,2
9,2
9,2
9,2
9,2
9,2
9,2
9,2
9,2
9,2
10,2
10,2
10,2
10,1
10,1
10,1
10,1
10,1
10,2
10,2
9,2
9,2
9,2
9,1
9,1
9,1
9,1
9,2
8,2
8,2
8,2
8,2
8,2
8,2
8,2
8,2
9,2
9,2
9,2
9,2
9,2
9,2
8,2
8,2
8,2
8,2
8,2
8,2
8,1
8,1
7,1
7,1
7,1
7,1
8,2
8,2
9,2
9,2
9,2
9,2
9,2
9,2
9,2
9,2
9,2
9,2
9,2
9,2
9,2
8,2
8,2
8,2
8,2
8,2
8,2
8,2
8,2
8,2
8,2
8,2
8,2
8,2
8,2
8,2
8,2
8,2
8,2
8,2
7,2
7,2
7,2
7,2
7,2
7,2
7,2
7,2
7,2
7,2
6,2
6,2
6,2
7,2
7,2
7,2
7,2
7,2
7,2
7,2
7,2
7,2
7,2
7,2
7,2
7,2
6,2
6,2
6,2
6,2
6,2
6,2
6,2
6,2
6,2
7,2
7,2
7,2
7,2
7,2
7,2
7,2
7,2
7,2
6,2
6,2
6,2
6,2
6,2
6,2
7,2
7,2
7,2
7,2
7,2
7,2
7,2
7,2
7,2
7,2
7,2
7,2
7,2
6,2
6,2
6,2
5,2
5,2
5,2
5,2
5,2
5,2
5,2
5,2
5,2
5,2
5,2
5,2
5,2
5,2
5,2
5,2
5,2
5,2
5,2
5,2
5,2
5,2
5,2
6,2
7,2
7,2
7,2
7,2
7,2
7,2
7,2
7,2
7,2
7,2
7,2
7,2
8,2
8,2
8,2
8,2
8,2
8,2
8,2
7,2
7,2
7,2
7,2
7,2
7,2
7,2
7,2
7,2
7,2
7,2
7,2
7,2
7,2
7,2
7,2
7,2
7,1
7,1
6,1
6,1
6,1
7,2
7,2
7,2
7,2
8,2
8,2
8,2
9,2
9,2
9,2
9,2
9,2
9,2
9,2
9,2
9,2
9,2
9,2
9,2
9,2
9,2
9,2
9,2
9,2
9,2
8,2
8,2
8,2
8,2
8,2
8,2
8,2
8,2
8,2
9,2
9,2
9,2
9,2
10,2
10,2
10,2
10,2
10,2
10,2
10,2
10,2
10,2
10,2
10,2
10,2
10,2
10,2
10,2
11,2
10,2
10,2
10,2
10,2
10,2
9,2
9,2
8,2
8,2
8,1
7,1
7,1
7,1
7,1
7,1
7,2
7,2
7,2
7,2
7,2
7,2
7,2
7,2
7,2
7,2
7,2
7,2
7,2
7,2
7,2
7,2
7,2
7,2
7,2
7,2
7,2
7,2
7,2
7,2
7,2
7,2
7,2
7,2
7,2
7,2
7,2
7,2
7,2
7,2
7,2
7,2
7,2
7,2
7,2
7,2
7,2
7,2
7,2
7,2
7,2
7,2
7,2
7,2
7,2
6,2
6,2
6,2
6,2
6,2
6,2
7,2
7,2
7,2
7,2
7,2
7,2
7,2
7,2
7,2
7,2
7,2
7,2
7,2
7,2
7,2
7,2
7,2
7,2
7,2
7,2
7,2
7,2
7,2
7,2
7,2
7,2
7,2
7,2
7,2
7,2
7,2
7,2
7,2
7,2
7,2
8,2
8,1
8,1
8,2
9,1
9,1
9,1
9,1
9,1
10,2
10,2
10,2
9,2
9,2
9,2
8,2
8,2
8,2
8,2
8,2
8,2
8,1
9,1
9,1
10,1
10,1
10,1
10,2
9,2
9,2
9,2
9,2
9,2
9,2
10,2
11,3
11,3
11,3
11,3
11,3
11,3
11,4
12,4
12,4
13,4
14,4
14,4
14,5
15,5
15,5
15,5
16,5
16,5
16,4
16,5
16,5
17,5
19,6
19,6
19,7
19,8
20,8
21,8
21,8
22,8
22,7
23,7
23,7
25,7
26,8
26,8
29,10
29,10
34,11
36,13
37,14
37,14
39,15
41,15
42,16
42,16
42,16
41,17
41,17
40,17
40,16
40,16
42,16
43,16
43,16
43,16
51,19
53,19
53,19
56,21
58,23
59,25
59,25
60,25
61,25
61,24
61,24
62,25
64,26
69,26
72,27
74,28
74,28
72,29
73,31
72,33
72,33
76,36
77,38
75,39
73,40
73,40
73,41
69,40
69,40
68,39
70,38
70,38
72,37
72,37
72,37
72,37
72,37
72,37
72,37
72,37
72,37
72,37
72,37
72,37
72,37
72,37
72,37
72,37
72,37
72,37
72,37
72,37
72,37
72,37
72,37
72,37
72,37
72,37
72,37
72,37
72,37
72,37
72,37
72,37
72,37
72,37
72,37
72,37
72,37
72,37
72,37
72,37
72,37
72,37
72,37
72,37
72,37
72,37
72,37
72,37
72,37
72,37
72,37
72,37
72,37
72,37
72,37
72,37
72,37
72,37
72,37
72,37
72,37
72,37
72,37
72,37
72,37
72,37
72,37
72,37
72,37
72,37
72,37
72,37
72,37
72,37
72,37
72,37
72,37
72,37
72,37
72,37
72,37
72,37
72,37
72,37
72,37
72,37
72,37
72,37
72,37
72,37
72,37
72,37
72,37
72,37
72,37
72,37
72,37
72,37
72,37
72,37
72,37
0,0
10,10
19,21
20,22
22,29
22,29
21,33
19,31
19,31
17,29
15,25
15,25
13,22
11,16
11,16
10,12
9,8
9,8
9,6
9,4
9,2
8,1
8,1
8,1
8,1
8,1
8,1
8,1
8,1
8,1
8,1
8,1
8,1
8,2
8,2
8,2
8,2
8,2
8,2
8,2
8,2
8,2
8,2
8,2
8,2
8,2
8,2
8,2
8,2
8,2
8,2
8,2
8,2
9,2
9,2
9,2
10,2
10,2
10,2
10,2
9,2
9,2
9,2
9,2
9,2
8,2
8,2
8,2
8,2
9,2
9,2
9,2
9,2
9,2
9,2
9,2
9,2
10,2
10,2
10,2
10,2
10,2
10,2
9,2
9,2
9,2
8,2
8,2
8,2
9,2
9,2
9,2
9,2
9,2
8,2
8,2
8,2
9,2
9,2
9,2
9,2
9,2
10,2
10,2
10,2
10,2
10,2
10,2
9,2
9,2
9,2
9,2
9,2
10,2
10,2
10,2
10,2
11,3
12,3
14,4
14,4
17,6
20,7
20,7
23,9
27,11
27,11
31,13
31,13
37,18
41,24
41,24
43,31
45,40
45,40
46,53
44,65
40,75
35,73
35,73
29,66
29,66
24,56
21,46
21,46
19,33
19,25
19,25
19,22
18,14
18,14
17,9
15,5
15,5
13,3
11,1
11,1
10,0
10,0
10,0
9,0
9,0
9,0
9,1
8,2
8,2
8,2
8,2
8,2
8,2
8,2
8,2
8,2
9,2
9,2
9,2
9,2
9,2
9,2
9,2
9,2
9,2
9,2
9,2
8,2
8,2
9,3
9,3
11,4
13,5
16,7
19,8
22,11
25,13
29,18
29,18
35,25
35,25
35,25
35,25
40,48
41,62
42,80
42,103
44,143
46,171
47,188
46,195
46,195
46,194
45,187
45,187
45,186
43,184
43,184
42,177
41,170
41,167
41,159
41,159
39,152
39,150
38,149
38,149
39,150
39,148
39,148
38,146
37,142
37,142
35,137
34,127
34,127
30,104
24,66
22,49
22,49
18,27
16,17
13,9
11,3
11,3
10,0
9,0
9,0
8,1
8,1
8,0
9,0
9,0
9,0
9,1
9,1
10,2
10,2
10,2
10,2
10,2
11,2
11,2
11,2
11,2
10,2
10,2
10,2
10,2
9,2
9,2
9,2
9,2
9,2
9,2
9,2
9,2
9,2
9,2
9,2
9,2
9,2
9,2
9,2
10,2
10,2
10,2
10,2
10,2
10,2
11,2
11,2
11,2
11,2
10,2
10,2
10,2
10,2
10,2
10,2
10,2
10,2
10,2
10,2
10,2
10,2
9,2
9,2
9,2
9,2
8,2
8,2
8,2
8,2
8,2
8,2
8,2
8,2
8,2
8,2
8,2
9,2
9,2
9,2
9,2
9,2
9,2
9,2
9,2
9,2
9,2
9,2
9,2
9,2
8,2
8,2
8,2
8,2
8,2
9,2
10,2
10,2
10,2
10,2
10,2
10,2
10,2
10,2
10,2
9,2
9,2
9,2
9,2
8,2
8,2
8,2
8,2
8,2
8,2
8,1
8,1
9,1
9,1
9,1
9,1
10,1
10,1
10,1
10,2
10,2
10,2
11,2
11,2
10,2
10,2
10,2
10,2
9,2
9,2
9,2
9,2
9,2
9,2
10,2
10,2
10,2
10,2
11,2
11,2
11,2
11,2
10,2
10,2
10,2
10,1
10,1
10,1
10,1
10,1
10,1
10,1
10,1
10,2
10,2
10,2
9,2
9,2
9,2
9,2
9,2
9,2
9,2
9,2
9,2
9,1
8,1
8,1
8,1
7,2
7,2
7,2
8,2
8,2
9,2
9,2
10,2
10,2
10,2
10,2
11,2
11,2
11,2
11,2
11,2
11,2
11,2
11,2
11,2
10,2
10,2
10,2
9,2
9,2
9,2
9,2
9,2
8,2
8,2
8,2
7,2
7,2
7,2
6,2
7,2
7,2
7,2
8,2
8,2
8,2
9,2
9,2
9,2
9,2
9,2
9,2
9,2
8,2
8,2
8,2
9,2
9,2
9,2
9,2
9,2
9,2
9,2
9,2
9,2
9,2
10,2
10,2
10,2
11,2
11,2
10,1
10,1
10,2
9,2
9,2
9,2
9,2
9,2
9,2
8,2
8,2
8,2
8,2
8,2
8,2
8,2
9,2
9,2
9,2
9,2
9,2
9,2
9,1
9,2
9,2
8,2
8,2
8,2
8,2
8,2
8,2
9,2
9,2
9,2
9,2
10,2
10,2
10,2
10,2
10,2
10,2
10,2
10,2
10,2
10,2
10,2
9,2
9,2
9,2
9,2
9,2
9,2
8,2
8,2
8,2
8,2
8,2
8,2
8,2
8,2
8,2
9,2
9,2
9,2
10,2
10,2
10,2
10,2
10,2
11,2
11,2
11,2
11,2
11,2
11,2
11,2
12,2
12,2
11,2
11,1
11,1
10,1
9,2
9,2
8,2
8,2
8,2
8,2
8,2
8,2
8,2
8,2
8,2
9,2
9,2
10,2
10,2
10,2
10,2
10,2
10,2
10,2
10,2
10,2
10,2
10,2
9,2
9,2
9,2
9,2
9,2
10,2
10,2
10,2
10,2
10,2
10,2
9,2
9,2
9,2
9,2
9,2
9,2
9,2
9,2
9,2
9,2
9,2
10,2
10,2
10,2
10,2
10,2
10,2
10,2
10,2
10,2
10,2
10,2
10,2
10,2
10,2
10,2
10,2
10,2
10,2
9,2
10,2
10,2
10,2
10,2
11,2
11,2
11,2
11,2
10,2
10,2
10,2
10,2
9,2
9,2
9,2
9,2
10,2
10,2
10,2
10,2
10,2
10,2
10,2
10,2
10,2
10,2
10,2
10,2
9,2
9,2
9,2
9,2
9,2
9,2
10,2
10,2
10,2
10,2
10,2
10,2
9,2
9,2
9,2
9,2
9,2
10,2
10,2
10,2
9,2
9,2
9,2
9,2
9,2
9,2
9,2
9,2
9,2
9,2
9,2
8,2
8,2
8,2
8,2
8,2
8,2
8,2
9,2
9,2
9,2
9,2
9,2
9,2
9,2
9,2
9,2
9,2
9,2
9,2
9,2
9,2
9,2
9,2
9,2
9,2
9,2
9,2
8,2
8,2
8,2
8,2
7,2
7,2
7,2
6,2
6,2
6,2
6,2
7,2
7,2
7,2
7,2
8,2
8,2
8,2
8,2
8,2
8,2
8,2
8,2
8,2
8,2
8,2
8,2
8,2
8,2
9,2
10,2
10,2
10,2
10,2
10,2
10,2
9,2
9,2
9,2
9,2
9,2
9,2
8,2
8,2
8,2
8,2
8,2
8,2
8,2
8,2
8,2
7,2
8,2
8,2
8,2
9,2
9,2
9,2
8,2
8,2
8,2
8,2
8,2
7,2
7,2
7,2
6,2
6,2
6,2
6,2
7,2
7,2
7,2
7,2
7,2
7,2
7,2
8,2
8,2
8,2
8,2
8,2
7,2
7,2
7,2
7,2
7,2
7,2
7,2
8,2
8,2
8,2
8,2
8,2
8,2
8,2
8,2
8,2
9,2
9,2
9,2
9,2
9,2
9,2
9,2
9,2
9,2
8,2
8,2
9,2
9,2
9,2
9,2
9,2
9,2
9,2
9,2
9,2
9,2
9,2
9,2
9,2
9,2
9,2
9,2
9,2
9,2
8,2
8,2
8,2
8,2
8,2
9,2
9,2
9,2
9,2
9,2
9,2
9,2
9,2
9,2
9,2
9,2
9,2
10,2
10,2
10,2
10,2
10,2
10,2
11,2
11,2
11,2
11,2
11,2
10,1
10,1
10,1
10,1
10,1
10,1
10,1
10,1
10,1
10,1
10,1
10,2
10,2
10,2
10,2
10,2
10,2
10,2
10,2
10,2
10,2
10,2
10,2
10,2
10,2
10,2
10,2
10,2
10,2
10,2
10,2
10,2
10,2
10,2
10,2
10,2
10,2
9,2
9,2
9,2
9,1
9,1
10,2
10,2
10,2
9,2
9,1
9,2
9,2
9,2
9,2
9,2
9,2
9,1
10,1
10,1
9,1
9,2
9,2
9,2
9,2
9,2
9,2
9,2
9,2
9,2
9,2
9,2
9,2
9,2
9,2
9,2
9,2
9,2
9,2
9,2
9,2
9,2
9,2
9,2
9,2
9,2
9,2
9,2
9,2
9,2
9,2
8,2
8,2
9,2
9,1
8,1
8,2
8,2
8,2
7,2
7,2
7,2
8,2
8,2
8,2
9,2
9,2
9,2
9,2
9,2
9,2
9,2
9,2
10,2
9,2
9,2
9,2
9,2
9,2
10,2
10,2
10,2
10,2
10,2
10,2
10,2
10,1
10,1
9,1
9,1
9,2
9,2
9,2
8,2
8,2
8,2
8,2
8,2
8,2
8,2
8,2
8,2
8,2
8,2
8,2
8,2
8,2
8,2
9,2
9,2
9,2
9,2
8,2
8,2
8,2
8,2
9,2
9,2
9,2
9,2
9,2
9,2
9,2
9,2
9,2
9,2
9,2
9,2
9,2
9,2
9,2
9,2
9,2
9,2
9,2
9,2
9,2
9,2
9,2
9,2
9,2
9,2
9,2
9,2
9,2
9,2
9,2
9,2
9,1
9,1
8,1
8,1
8,2
8,2
8,2
8,2
8,2
7,2
7,1
7,1
7,1
7,2
7,2
7,2
6,2
6,2
6,2
7,2
7,2
8,2
8,2
8,2
9,3
11,4
12,5
12,5
14,6
16,8
16,8
19,11
22,15
22,15
25,20
28,27
28,36
28,36
29,52
31,66
31,66
32,79
32,79
33,90
33,99
32,103
32,103
31,105
30,105
30,105
29,105
28,105
28,105
28,105
28,102
28,102
27,93
27,93
23,73
19,56
19,56
16,40
14,26
14,26
12,16
12,16
8,2
8,2
7,0
7,1
8,2
8,1
8,1
8,1
8,1
8,0
9,0
9,0
9,0
10,1
11,1
11,1
11,2
11,2
11,2
11,2
11,2
11,2
11,2
11,2
11,2
11,2
11,2
10,2
10,2
9,2
9,2
9,2
9,2
9,2
9,2
9,2
9,2
9,2
9,2
9,2
9,2
9,2
9,2
9,2
9,2
9,2
10,2
10,2
10,2
9,2
10,2
10,2
10,2
10,2
10,2
10,2
10,2
10,2
10,2
10,2
10,2
10,2
10,2
10,2
10,2
10,2
10,2
10,2
10,2
10,2
9,2
9,2
9,2
9,2
9,2
9,2
9,2
9,2
9,2
9,2
9,2
9,2
10,2
10,2
10,2
10,2
10,2
10,2
11,2
11,2
11,2
10,2
10,2
10,2
9,2
9,2
9,2
8,2
8,2
7,2
7,2
7,2
6,2
6,2
6,2
6,2
5,2
5,2
5,2
5,2
6,2
6,2
6,2
6,2
7,2
7,2
7,2
8,1
7,1
7,1
7,1
8,1
8,1
8,1
8,1
8,1
8,1
9,1
9,1
9,1
9,1
9,1
9,1
9,2
9,2
9,2
9,2
9,2
9,2
9,2
9,2
8,2
9,2
9,2
8,2
8,2
9,2
9,2
9,2
9,2
9,2
9,2
8,2
8,2
8,2
8,2
9,2
9,1
9,1
9,1
9,2
9,2
9,2
9,2
9,2
9,2
9,2
9,2
9,2
9,2
9,2
9,2
9,2
8,2
8,2
8,2
8,2
8,2
8,2
8,2
8,2
9,2
9,2
9,2
9,2
10,2
10,2
10,2
11,2
11,2
11,2
11,2
11,3
11,3
11,3
10,3
10,3
10,3
10,2
10,3
10,3
10,3
10,3
10,3
10,4
11,6
12,8
14,12
15,15
15,15
15,15
17,26
17,26
18,30
17,32
17,32
17,33
17,33
16,34
15,36
15,36
15,41
15,43
15,43
14,46
14,48
14,48
14,49
14,51
15,54
16,59
18,66
19,67
20,68
20,67
20,67
20,66
19,66
19,66
19,66
19,65
18,64
18,67
18,68
17,70
17,70
17,71
17,69
17,69
17,70
17,73
17,73
17,73
18,76
18,76
18,79
17,75
17,75
17,73
17,73
16,70
17,67
17,67
17,67
17,66
17,66
16,60
16,50
16,50
15,35
14,25
12,17
12,17
11,10
10,5
10,5
10,2
9,1
9,0
9,0
9,1
10,2
11,5
13,7
16,10
16,10
19,14
23,18
26,22
26,22
29,31
29,34
27,45
25,53
25,53
25,53
22,63
22,67
22,67
21,67
20,66
20,66
19,67
18,64
17,57
16,44
16,44
14,33
13,24
13,24
12,16
11,9
11,9
10,4
10,1
10,1
11,0
11,0
12,0
13,0
12,0
12,0
12,0
11,1
11,1
11,1
10,2
9,2
9,2
9,2
9,2
9,2
9,2
9,2
8,2
8,2
9,2
9,2
9,2
9,2
9,2
9,2
9,2
9,2
9,2
9,2
9,1
9,1
9,1
9,1
9,1
9,1
9,1
9,1
8,1
8,2
8,2
8,2
8,2
8,2
8,2
8,2
8,2
8,2
8,2
8,2
8,2
8,2
8,2
8,2
8,2
8,2
8,2
9,2
9,2
9,2
9,2
9,2
9,2
9,2
9,2
9,2
9,2
8,2
8,2
8,2
8,2
7,2
7,2
7,2
7,2
7,2
7,2
8,2
8,2
8,2
8,2
8,2
8,2
8,2
9,2
9,2
9,2
9,2
9,2
9,2
9,2
9,2
9,2
9,2
9,2
8,2
8,2
8,2
8,2
8,2
8,2
9,2
9,2
9,2
9,2
9,2
9,2
9,2
9,2
9,2
9,2
9,2
9,2
10,2
10,1
10,1
10,1
10,1
10,1
10,1
10,1
10,1
10,1
10,2
10,2
10,2
10,2
9,2
9,2
9,2
9,2
10,2
9,2
10,2
10,2
10,2
11,2
11,2
11,2
11,2
10,2
10,2
10,2
10,2
10,2
10,2
9,2
9,2
9,2
9,2
9,1
9,1
9,1
9,1
10,1
10,1
10,1
10,1
10,1
10,2
9,2
9,2
9,2
9,2
10,1
9,1
9,1
9,1
9,2
9,2
9,2
9,2
9,2
9,2
9,2
9,2
9,2
10,2
10,2
10,2
10,2
10,2
10,2
10,2
10,2
10,2
10,2
10,2
10,2
10,2
10,2
9,2
9,2
9,2
9,2
10,2
10,2
10,2
10,2
10,2
10,2
10,2
10,2
10,2
10,2
10,2
11,2
11,2
11,2
10,2
10,2
10,2
10,2
10,2
9,2
9,2
9,2
9,2
9,2
9,2
9,2
9,2
9,2
9,2
10,1
10,1
10,1
10,1
10,1
10,2
10,2
10,2
10,2
11,2
11,2
11,2
11,2
11,2
11,2
11,2
11,2
10,2
10,2
10,2
10,2
8,2
8,2
8,2
9,2
9,2
9,2
9,2
9,2
10,2
10,2
10,2
11,2
11,2
10,2
10,2
10,2
10,2
10,2
9,2
9,2
9,2
8,2
8,2
8,2
8,2
8,2
8,2
8,2
8,2
8,2
8,2
9,2
10,2
10,2
10,2
10,2
10,2
10,2
10,2
10,2
10,2
10,2
10,2
10,2
9,2
9,2
9,2
9,2
9,2
9,2
9,2
9,2
9,2
9,2
9,2
9,2
9,2
9,2
9,2
9,2
9,2
9,2
9,2
9,2
9,2
9,2
9,2
9,2
9,2
9,1
9,1
9,1
9,2
9,2
9,2
9,2
9,2
9,2
9,2
8,2
8,2
8,2
8,2
8,2
7,2
7,2
7,2
7,2
7,2
7,1
7,1
7,2
7,2
7,2
8,3
8,4
9,5
9,7
9,7
10,10
12,16
12,16
14,22
15,29
17,38
20,53
26,80
26,80
30,99
31,104
31,104
35,116
35,121
35,121
36,122
35,122
35,122
34,121
33,120
33,120
33,120
32,119
31,116
31,116
31,116
31,121
31,121
32,125
32,125
33,128
34,130
34,130
34,132
36,134
36,134
38,145
40,157
40,157
40,165
41,166
41,166
40,162
41,158
41,158
42,160
42,160
42,160
43,163
43,163
47,164
47,164
49,168
51,167
53,163
55,161
55,161
54,157
55,156
55,156
53,156
52,153
52,153
52,151
51,149
51,148
49,149
49,149
48,153
48,153
48,153
43,152
41,151
41,151
39,152
38,154
37,158
37,158
36,160
36,158
36,158
37,158
37,153
34,134
34,134
30,114
22,71
22,71
19,51
15,29
13,16
12,8
12,8
11,2
11,1
11,1
10,2
10,3
10,3
10,2
10,2
10,1
10,1
10,0
9,0
9,1
9,1
9,1
8,2
8,2
9,2
9,2
9,2
9,2
9,2
10,2
10,2
10,2
10,2
10,2
11,2
11,2
10,2
10,2
10,2
10,2
10,2
9,2
9,2
9,2
8,2
8,2
8,2
7,2
7,1
7,1
7,1
7,1
8,1
8,1
8,1
8,2
8,2
8,2
8,2
8,2
8,2
8,2
8,2
8,2
9,2
9,2
9,2
9,2
9,2
9,2
9,2
9,2
9,2
8,2
8,2
8,2
8,2
8,2
8,2
9,2
9,2
9,2
9,2
9,2
10,2
10,2
10,2
10,2
10,2
10,2
10,2
10,2
10,2
10,2
10,2
10,2
10,2
11,2
11,2
10,2
9,2
9,2
9,2
9,2
9,2
9,2
9,2
9,2
9,2
9,2
9,2
8,1
8,1
8,2
8,2
8,2
8,2
8,2
8,2
8,2
8,2
9,2
9,2
8,3
8,3
8,3
8,3
9,3
9,3
9,3
9,4
10,5
10,5
10,6
11,8
12,11
12,11
13,16
14,21
14,21
15,26
15,31
16,37
16,44
16,44
17,52
17,62
17,68
18,74
18,78
18,79
18,79
18,79
18,79
18,79
19,79
19,79
19,77
20,78
20,74
21,73
22,74
22,76
22,81
22,81
23,87
25,92
25,92
25,97
26,102
27,109
28,116
28,121
28,121
28,117
28,111
27,105
25,98
25,98
23,94
23,93
22,94
22,94
21,94
22,94
22,94
23,97
25,99
25,99
28,107
30,112
30,112
30,112
30,112
33,115
34,116
34,118
34,118
33,115
32,114
31,109
31,106
30,105
30,105
29,105
29,110
29,110
29,114
28,116
29,117
29,117
29,117
30,117
30,120
30,120
29,115
28,110
28,110
26,100
25,97
25,97
24,97
23,99
22,99
22,99
21,101
21,103
22,105
24,106
26,108
27,112
27,112
27,112
27,110
27,110
27,110
27,110
25,103
26,100
26,100
26,96
26,96
26,96
25,98
25,102
26,110
26,110
26,117
26,120
26,120
27,120
28,119
29,114
29,114
30,111
30,109
29,104
29,104
28,101
27,100
27,100
27,101
27,99
27,99
27,99
28,100
28,104
27,102
27,102
26,99
25,101
24,103
24,103
24,103
23,105
23,104
23,104
23,104
23,101
24,96
24,96
24,93
24,88
24,88
23,76
20,63
17,48
17,48
14,35
11,20
10,12
10,12
9,6
8,2
8,0
8,1
8,1
8,1
8,1
7,0
8,0
8,0
8,0
8,1
8,1
7,1
7,2
8,2
8,2
8,2
8,2
8,2
8,2
9,2
9,2
9,2
9,2
9,2
9,2
9,2
9,2
9,2
9,2
9,2
9,2
9,2
9,2
9,2
8,2
8,2
8,2
8,2
8,2
8,2
8,2
8,2
9,2
9,2
9,2
9,2
9,2
8,2
8,2
8,2
8,2
8,2
8,2
8,2
8,2
8,2
8,1
8,1
9,1
9,1
9,1
10,1
10,1
11,1
11,1
11,1
11,2
11,2
11,2
11,2
10,2
9,2
8,2
8,2
8,2
7,2
8,2
8,2
8,2
8,2
8,2
9,2
9,2
9,2
9,2
10,2
10,2
10,2
9,2
9,2
9,2
9,2
8,2
8,1
8,1
8,2
8,2
8,2
8,2
8,2
8,2
9,2
9,2
9,2
9,2
9,2
9,2
9,2
9,2
9,2
10,2
9,2
9,2
9,2
9,2
8,2
8,2
8,2
8,2
8,2
8,2
8,2
7,2
7,2
7,2
7,2
7,2
7,2
7,2
6,2
6,2
6,2
6,2
6,2
6,2
6,2
7,2
7,2
7,2
7,2
7,2
7,2
7,2
7,2
8,2
8,2
8,2
8,2
8,2
8,2
8,2
8,2
8,2
8,2
8,2
8,2
8,2
8,2
8,2
8,2
7,2
7,2
7,2
7,2
7,2
7,2
7,2
7,2
7,2
7,2
7,2
7,2
7,2
8,1
8,1
8,1
8,1
8,1
8,1
8,1
8,1
8,2
8,2
8,2
8,2
8,2
8,2
8,2
9,2
9,2
9,2
9,2
9,2
9,2
9,2
9,2
9,2
9,2
9,2
10,2
10,2
10,2
11,2
11,2
10,2
10,2
9,2
9,2
9,2
8,2
8,2
8,2
7,2
7,2
6,1
6,1
6,1
6,1
6,2
6,2
6,2
6,2
7,2
7,2
7,2
7,2
8,2
8,2
8,2
9,2
9,2
9,2
9,2
9,2
9,2
9,2
9,2
9,2
9,2
9,2
9,2
9,2
8,2
8,2
9,2
9,2
9,2
9,2
8,2
8,2
8,2
8,2
8,2
9,2
9,2
9,2
9,2
9,2
9,2
9,2
9,1
9,1
8,1
8,1
8,1
8,2
8,2
8,2
8,2
8,2
8,2
8,2
8,2
8,2
8,2
8,2
8,2
8,2
8,2
8,2
8,2
8,2
8,2
8,2
8,2
7,2
6,2
6,2
6,2
7,2
7,2
7,2
7,2
7,2
7,2
7,2
7,2
7,2
7,2
8,2
8,2
8,2
8,2
8,2
8,2
8,2
8,2
8,2
8,2
8,2
9,2
9,2
9,2
9,2
8,2
8,2
8,2
8,2
9,2
9,2
9,2
9,2
9,2
10,2
10,2
10,2
10,2
10,2
10,2
9,2
9,2
9,2
9,2
9,2
9,2
9,2
9,2
9,2
9,2
9,2
9,2
9,2
9,2
9,2
9,2
8,2
8,2
8,2
8,2
8,2
8,2
8,2
8,2
8,2
8,2
8,2
8,2
8,2
8,2
8,2
8,2
8,2
8,2
8,2
9,2
9,2
9,2
9,2
9,2
9,2
9,2
9,2
9,2
9,2
8,2
8,2
9,2
9,2
9,2
9,2
9,2
9,2
9,2
9,2
9,2
9,2
8,2
8,2
8,2
8,1
8,1
8,1
8,1
9,1
9,1
9,2
9,2
9,2
9,2
9,2
9,2
9,2
9,2
8,2
8,2
8,2
8,2
8,2
8,2
9,2
9,2
9,2
9,2
9,2
9,2
9,2
10,2
10,2
10,2
10,2
10,2
10,2
10,2
10,2
10,2
10,2
10,2
10,2
10,2
9,2
9,2
9,2
9,2
9,2
9,2
9,2
9,2
9,2
10,2
10,2
10,2
10,2
11,2
11,2
11,2
11,2
11,2
11,2
11,2
11,2
11,2
11,2
11,2
11,2
11,2
11,1
11,1
12,2
12,2
12,2
11,2
11,2
11,2
10,2
10,2
10,2
10,2
10,2
10,2
10,2
11,2
11,2
11,2
11,2
11,2
12,2
11,2
11,2
11,2
11,2
11,2
11,2
11,2
11,2
11,2
11,2
11,2
11,2
10,2
10,2
10,2
10,2
10,2
10,2
10,2
10,2
10,2
10,2
10,2
10,2
11,2
11,2
11,2
11,2
11,2
10,2
10,2
10,2
10,2
10,2
10,1
10,1
11,2
11,2
11,2
11,2
11,2
11,2
11,2
11,2
11,2
12,2
12,2
12,2
12,2
12,2
12,2
12,2
12,1
12,1
12,1
12,1
12,1
12,1
12,2
12,2
12,2
12,2
12,2
12,2
11,2
11,2
11,2
11,2
11,2
11,2
10,2
10,2
9,2
9,1
9,1
9,1
10,1
10,1
10,1
10,2
10,2
10,2
11,1
10,2
10,2
10,2
9,2
9,2
9,2
9,2
9,2
9,2
9,2
9,2
10,2
10,2
10,2
10,2
10,2
10,2
10,2
10,2
10,2
10,2
10,2
10,2
10,2
10,2
10,2
10,2
10,2
10,2
10,2
10,2
10,2
10,2
10,2
10,2
10,2
11,2
11,2
11,2
11,2
12,2
11,2
11,2
11,1
11,1
11,2
11,2
11,2
11,2
11,2
10,2
11,2
11,2
11,2
11,2
11,2
11,2
11,2
11,2
11,2
11,2
11,2
11,2
10,2
10,3
10,3
9,3
10,3
10,3
10,3
10,3
10,3
9,2
9,2
9,2
9,2
9,2
9,2
9,2
8,2
8,2
8,2
8,2
8,2
8,2
8,2
8,2
8,2
8,2
9,3
9,3
10,3
12,4
16,5
16,5
19,7
23,9
23,9
28,11
33,14
33,14
37,20
41,27
41,27
44,37
47,52
47,52
51,72
55,97
60,129
61,147
61,147
61,147
58,159
54,158
54,158
51,153
48,147
45,143
45,143
45,146
45,147
44,153
44,153
44,166
45,176
45,176
46,182
48,185
49,185
49,185
50,189
49,193
49,193
48,187
48,184
47,170
47,170
46,161
45,152
44,145
43,141
43,144
43,144
44,147
44,149
44,149
43,152
42,154
41,160
41,160
39,161
37,163
37,163
37,163
36,157
36,157
36,154
36,152
38,150
38,150
38,148
38,149
38,149
37,145
37,143
36,139
33,122
33,122
29,100
24,77
24,77
20,55
12,18
12,18
10,9
9,2
8,1
9,2
9,2
9,3
10,3
10,2
10,2
10,1
10,0
10,0
10,0
10,1
11,1
11,1
11,2
11,2
11,2
12,2
12,2
12,2
12,2
12,2
12,2
13,2
12,2
12,2
12,2
12,2
12,2
11,2
11,2
10,2
10,2
10,2
11,2
11,2
11,2
11,2
10,2
10,2
10,2
10,2
10,2
10,2
10,2
9,2
9,2
9,2
8,2
8,2
9,2
10,2
10,2
11,2
11,2
12,2
12,2
12,2
12,2
12,2
12,2
12,2
12,2
12,1
11,1
11,1
11,1
11,2
11,2
11,2
11,2
11,2
11,2
12,2
12,2
12,2
13,2
13,2
14,2
14,2
14,2
14,2
14,2
15,2
16,2
16,2
16,2
15,2
15,2
15,2
14,2
13,2
13,2
13,2
12,2
12,2
12,2
12,2
12,2
12,2
13,2
13,2
13,2
13,2
13,2
15,2
15,2
15,2
15,2
15,2
15,2
16,2
15,2
15,2
14,2
13,2
12,2
12,2
12,2
12,2
12,2
12,2
12,2
13,2
14,2
14,2
14,2
15,2
15,2
15,2
15,2
15,2
15,2
15,2
14,2
14,2
13,2
13,2
12,2
12,2
12,2
12,2
12,2
12,2
11,2
11,2
11,2
11,2
11,2
12,2
12,2
11,2
11,2
11,2
11,2
11,2
11,2
11,2
11,2
11,2
11,2
11,2
12,2
12,2
12,2
12,2
12,2
11,2
11,2
11,2
11,2
11,2
11,2
10,2
11,2
11,2
11,2
11,2
10,2
10,2
10,2
10,2
10,2
11,2
11,2
11,2
11,2
11,2
11,2
11,2
11,2
11,2
11,2
11,2
11,2
10,2
10,2
10,2
9,2
9,2
9,2
9,1
9,1
9,1
10,1
10,1
10,1
10,1
11,1
12,1
12,1
12,1
12,1
12,1
12,1
12,1
12,1
13,1
13,1
13,2
13,2
13,2
13,2
13,2
13,2
13,2
13,2
13,2
12,2
12,2
12,2
12,2
12,2
12,2
12,2
12,2
12,2
12,2
12,2
12,2
12,2
11,2
11,2
10,2
10,2
10,2
10,2
9,2
9,2
9,2
10,2
10,2
10,2
10,2
10,2
10,2
11,2
11,2
11,3
11,3
11,3
11,4
11,5
11,5
12,7
13,9
13,9
13,12
14,18
14,18
15,25
17,34
19,46
23,62
30,89
30,89
30,89
44,137
44,137
49,159
52,177
52,177
56,191
59,200
59,200
61,209
62,220
61,220
59,217
58,214
56,207
54,196
54,193
55,191
56,189
57,188
57,184
57,184
57,191
57,199
57,199
56,196
55,191
55,191
54,189
55,189
55,189
56,190
56,193
56,193
55,191
52,184
50,182
49,183
49,183
48,181
49,178
49,178
49,178
50,177
50,175
50,175
48,172
48,179
48,179
48,180
48,184
48,183
48,183
47,177
47,174
47,174
48,177
49,182
49,182
49,185
47,184
46,178
46,178
45,177
45,174
45,174
45,172
47,172
47,172
48,173
49,176
49,176
49,174
49,173
48,171
48,171
48,165
48,162
47,161
47,161
47,157
47,157
46,158
46,158
47,162
47,162
47,162
48,178
48,178
48,179
49,178
49,178
49,177
47,179
47,179
46,176
45,172
45,172
45,172
46,168
47,166
47,166
47,168
47,171
45,168
45,168
43,163
42,157
42,157
41,153
40,150
41,149
41,148
41,145
41,142
40,146
40,150
40,151
41,151
42,150
42,150
44,149
45,147
45,142
45,142
43,132
43,132
43,132
33,83
33,83
29,63
27,44
27,44
25,26
24,16
23,9
22,4
19,1
16,0
16,0
14,0
12,0
12,0
11,0
10,0
10,0
10,0
10,0
10,1
11,1
11,1
11,2
11,2
11,2
11,2
12,2
12,2
12,2
12,2
11,2
11,2
11,2
11,2
11,2
11,2
11,2
11,2
11,2
12,2
12,2
12,2
13,2
13,2
13,2
13,2
13,2
13,2
13,1
13,1
12,2
12,1
12,1
12,1
12,1
12,1
12,1
12,2
13,2
13,2
13,2
13,2
13,2
13,2
13,2
13,2
12,2
12,2
12,2
11,2
10,2
10,2
10,2
9,2
9,2
8,2
9,2
9,2
9,2
9,2
9,2
10,2
11,2
11,2
11,2
11,2
11,2
11,2
11,2
11,2
11,2
11,2
11,2
11,2
12,2
12,2
12,2
12,2
12,2
12,2
13,2
14,2
14,2
14,2
14,2
14,2
14,2
14,2
15,2
15,2
15,2
15,2
14,2
14,2
14,2
14,2
13,1
13,1
13,1
13,1
13,1
12,1
12,1
12,1
12,1
12,1
12,1
13,2
13,2
14,2
14,2
14,2
14,2
14,2
14,2
14,2
13,2
13,2
13,2
13,2
12,2
12,2
11,2
11,2
11,2
11,2
11,2
11,2
11,2
12,2
12,2
12,2
12,2
12,2
12,2
12,2
13,2
13,2
14,2
14,2
14,2
13,2
13,2
13,2
13,2
11,2
11,2
11,2
11,2
11,2
11,2
10,2
10,2
11,2
11,2
11,2
11,2
11,2
11,2
12,2
13,2
14,2
14,2
14,2
14,2
14,2
14,2
13,2
13,2
13,2
12,2
12,2
11,2
11,2
11,2
11,2
11,2
11,2
11,2
12,2
11,2
11,2
11,2
11,2
11,2
11,2
11,2
12,3
12,3
12,3
17,4
17,4
21,4
26,5
30,7
30,8
30,8
31,10
31,16
31,16
30,21
31,28
33,43
33,43
33,54
34,64
34,64
35,72
34,73
34,73
29,62
26,52
26,52
23,42
22,33
22,33
23,25
27,18
27,18
33,15
40,14
46,15
48,15
48,15
54,17
54,17
50,17
50,17
44,15
37,13
37,13
37,13
37,13
23,8
18,7
18,7
15,7
13,6
12,5
11,5
11,4
10,4
10,4
10,4
11,5
11,5
13,6
16,8
16,8
21,10
26,13
26,13
31,18
36,23
36,23
40,28
44,37
44,37
48,51
50,69
52,90
52,90
54,115
55,142
55,142
56,158
58,175
58,175
60,190
61,207
61,207
60,210
62,213
62,213
62,209
62,209
62,209
57,207
55,209
55,209
52,208
49,204
49,204
47,204
46,193
46,193
46,186
47,187
47,187
49,187
51,189
51,189
51,186
51,182
51,182
51,178
53,177
53,177
53,176
53,176
52,171
51,164
51,164
49,158
46,146
40,128
40,128
34,105
30,89
30,89
24,65
19,45
19,45
15,23
12,12
12,12
11,4
10,0
10,0
9,2
9,2
9,2
9,3
9,3
10,2
10,1
10,1
11,0
11,0
11,1
11,1
12,2
12,2
12,2
12,2
12,2
12,2
11,2
11,2
11,2
11,2
11,2
11,2
11,2
11,2
11,2
11,2
11,2
13,2
13,2
13,2
13,2
12,2
12,2
12,2
12,2
12,2
12,2
12,2
11,2
10,2
10,2
10,2
10,2
10,2
9,2
10,2
10,2
10,2
10,2
12,2
12,2
12,2
12,2
12,2
12,2
11,1
11,1
11,1
10,2
10,2
10,2
10,2
9,2
9,2
9,2
9,2
10,2
9,2
9,2
9,2
9,2
9,2
9,2
9,2
9,2
9,2
10,2
10,2
10,2
10,2
10,2
10,2
10,2
10,2
9,2
9,2
9,2
10,2
10,2
10,2
10,2
10,2
10,2
10,2
10,2
10,2
10,2
10,2
10,2
10,2
10,2
10,2
10,2
10,2
10,2
10,2
10,2
10,2
11,2
12,2
12,2
12,2
12,2
12,2
12,2
12,2
11,2
10,2
10,2
10,2
9,2
9,2
9,2
9,2
9,2
9,2
9,2
9,2
8,1
8,2
8,2
9,2
9,2
9,2
9,2
9,2
9,2
9,2
9,2
9,2
9,2
9,2
9,2
9,2
9,2
9,2
9,2
9,2
9,2
9,2
9,2
9,2
9,2
10,2
10,2
10,2
10,2
10,2
10,2
10,2
10,2
9,2
9,2
9,2
9,2
9,2
9,2
9,2
9,2
9,2
10,2
10,2
10,2
11,2
11,2
12,2
11,2
11,2
11,2
11,2
11,2
11,2
11,2
11,2
10,2
10,2
10,2
10,2
10,2
9,2
9,1
9,1
9,1
9,1
9,1
9,1
9,1
10,1
10,1
10,2
10,2
10,2
11,2
10,2
10,2
10,2
10,2
10,2
10,2
9,2
9,2
9,2
9,2
9,1
9,1
9,1
10,1
10,2
10,2
11,2
11,2
11,2
11,2
11,2
11,2
11,2
11,2
11,2
10,2
10,2
10,2
10,2
10,2
10,2
11,2
11,2
11,2
11,2
11,2
11,2
11,2
11,2
10,2
10,2
10,2
9,2
9,2
9,2
9,2
9,2
9,2
8,2
8,2
8,2
9,2
9,2
9,2
9,1
9,1
9,2
9,2
9,2
10,2
10,2
10,2
10,2
11,2
10,2
10,2
10,2
10,2
9,2
8,2
9,2
9,2
9,2
9,2
9,2
9,2
9,2
9,2
9,2
9,2
9,2
9,2
9,2
9,2
9,2
9,2
9,2
9,2
10,2
10,2
10,2
11,2
11,2
11,2
11,2
10,2
10,2
10,2
10,2
9,2
9,2
10,2
10,2
10,2
10,2
10,2
10,2
9,2
9,2
9,2
9,2
9,2
9,2
9,2
9,2
9,2
9,2
9,2
9,2
9,2
9,2
9,2
9,2
9,2
9,2
9,2
9,2
9,2
9,2
9,2
9,2
9,2
9,2
10,2
10,2
10,2
10,2
10,2
10,2
10,2
10,2
10,2
10,2
10,2
10,2
10,2
10,2
10,2
10,2
10,1
10,2
10,2
9,2
9,2
9,2
9,2
8,2
8,2
8,2
9,2
9,2
9,2
9,2
9,2
9,2
9,2
9,2
9,2
9,2
9,2
9,2
9,2
9,2
9,2
9,2
9,2
9,2
9,2
9,2
9,2
9,2
9,2
9,2
9,2
9,2
9,2
9,2
8,2
8,2
8,2
8,2
8,2
9,2
9,2
9,2
10,2
10,2
10,2
10,2
10,2
10,2
10,2
10,2
10,2
10,2
10,2
10,2
10,2
10,2
10,2
10,2
10,2
10,2
10,2
10,1
10,1
9,1
9,2
9,2
9,2
9,2
9,2
9,2
10,2
10,2
10,2
10,2
9,2
8,2
8,2
8,2
8,2
8,2
8,2
9,2
9,2
9,2
9,2
9,2
9,2
9,2
9,2
9,2
8,2
8,2
8,2
8,2
8,2
8,2
8,2
7,2
7,2
7,2
7,2
7,3
7,3
7,3
7,3
7,3
7,4
7,6
8,7
9,10
9,10
12,12
14,16
14,16
17,24
21,33
21,33
25,45
31,60
31,60
35,73
37,91
38,107
38,107
40,123
41,134
41,134
42,147
44,161
44,161
44,161
51,180
51,181
51,181
52,183
51,184
50,185
50,185
50,189
49,190
49,190
47,185
46,181
46,179
46,179
46,179
44,173
42,165
42,165
41,158
41,153
40,147
40,147
40,141
40,136
40,136
40,136
39,132
39,132
35,122
32,111
32,111
26,90
22,69
17,44
17,44
14,28
12,16
12,16
10,8
9,2
9,2
9,1
9,2
9,2
9,2
9,2
9,1
10,0
10,0
10,0
10,0
10,0
10,1
10,2
10,2
10,2
10,2
10,2
10,2
10,2
10,2
10,2
10,2
10,2
10,2
10,2
10,2
10,2
10,2
9,2
9,2
9,2
9,2
9,2
9,2
9,2
9,2
9,2
9,2
9,2
9,2
9,2
9,2
9,2
8,2
8,2
8,2
8,2
8,2
8,2
7,2
7,2
8,2
8,2
8,2
8,2
8,2
8,2
8,2
8,2
8,2
8,2
7,2
7,2
7,2
8,2
8,2
8,2
9,3
9,3
9,3
10,3
10,3
10,3
10,3
9,3
9,2
9,2
9,2
9,2
9,2
9,2
11,2
11,2
13,3
15,3
15,3
15,3
23,4
23,4
27,4
31,5
33,7
37,8
37,8
39,11
38,17
38,24
38,24
40,32
41,40
43,53
43,53
46,95
49,134
50,157
50,157
50,169
51,177
50,180
50,180
47,184
46,191
45,189
44,187
44,187
43,185
44,191
44,191
47,197
50,202
50,201
50,201
50,201
49,195
49,195
49,195
49,195
47,176
44,168
43,166
42,165
41,165
39,157
38,155
39,156
40,158
42,166
43,173
43,173
44,173
44,170
44,170
44,172
46,177
46,177
47,177
49,178
51,183
51,183
51,187
50,190
48,186
48,182
48,182
50,184
52,186
52,186
51,185
50,184
49,187
49,187
48,190
49,196
49,198
49,198
49,198
48,194
48,194
48,192
48,190
48,185
48,177
48,177
46,170
45,165
45,165
45,164
45,163
45,163
43,162
43,162
43,166
42,162
40,156
37,152
37,152
35,145
35,136
35,128
35,128
35,123
32,107
28,87
28,87
24,66
19,41
19,41
16,26
14,14
13,6
13,6
12,1
11,3
11,3
11,3
11,2
11,2
11,2
11,0
11,0
11,0
12,1
12,1
11,1
10,2
10,2
9,2
8,2
8,2
8,2
8,2
9,2
9,2
9,2
10,2
10,2
10,2
11,2
11,2
11,2
11,2
11,2
11,2
11,2
11,2
11,2
11,2
11,2
11,2
11,2
11,2
11,2
11,2
11,2
11,2
11,2
11,2
11,2
11,2
11,2
11,2
10,2
10,2
10,2
10,2
10,2
10,2
11,2
11,2
11,2
11,2
11,2
11,2
10,2
10,2
10,2
10,2
10,2
10,2
10,2
10,2
10,2
10,2
9,2
9,2
9,2
9,2
9,2
9,2
9,2
8,2
8,2
8,2
8,2
8,2
8,2
8,2
8,2
8,2
9,2
9,2
9,2
9,2
10,2
9,1
9,1
9,1
9,1
10,2
10,2
10,2
10,2
9,2
9,2
9,2
8,2
8,2
8,2
8,2
8,2
8,2
8,2
8,2
9,2
9,2
9,2
10,2
11,2
11,2
11,2
10,2
10,2
9,2
9,2
8,2
8,2
8,2
8,2
8,2
8,2
8,2
7,2
7,2
7,2
7,2
7,2
7,2
7,2
7,2
7,2
7,2
7,2
7,2
7,2
7,2
6,2
6,2
6,2
6,2
6,2
6,2
6,2
6,2
7,2
7,2
7,2
7,2
7,2
7,2
7,2
7,2
7,2
7,1
7,1
7,1
8,1
8,1
8,1
8,1
8,1
8,1
7,1
7,1
7,2
7,2
8,2
8,2
8,2
8,2
8,2
8,2
9,2
9,2
9,2
9,2
9,2
8,2
8,2
8,2
8,2
8,2
8,2
8,2
8,2
7,2
7,2
7,2
7,2
7,2
6,2
6,1
6,1
6,1
6,1
6,1
6,1
6,1
6,1
6,2
6,2
6,2
6,2
6,2
6,2
6,2
7,2
7,2
7,2
7,2
7,2
7,2
7,2
7,2
7,2
7,2
7,2
7,2
7,2
7,2
7,2
8,2
8,2
8,2
9,2
9,2
9,2
9,2
9,2
10,2
9,2
9,2
9,2
8,2
7,2
6,2
5,2
5,2
5,2
5,2
6,2
6,2
6,2
6,2
6,2
7,2
7,2
8,2
8,2
8,2
8,2
8,2
8,2
8,2
8,2
8,2
8,2
8,2
8,2
8,2
8,2
8,2
8,2
8,2
8,2
8,2
7,2
7,2
7,2
7,2
7,2
7,2
7,2
7,2
7,2
7,2
7,2
7,2
7,1
7,1
7,1
7,1
6,1
6,1
6,1
6,1
6,1
6,1
6,2
6,2
6,2
7,2
7,2
7,2
7,2
7,2
7,2
7,2
7,2
7,2
7,2
7,2
7,2
7,2
7,2
8,2
8,2
8,2
8,2
8,2
8,2
8,2
8,2
8,2
8,2
8,2
8,2
8,2
8,2
8,2
9,2
8,2
8,2
8,2
8,2
8,2
8,2
8,2
8,2
8,2
8,2
8,2
9,2
9,2
9,2
8,2
8,1
7,1
7,1
7,1
7,2
7,2
7,2
7,2
7,2
7,2
7,2
7,2
7,2
7,2
8,2
8,2
8,2
8,2
8,2
8,2
8,2
8,2
8,2
8,2
8,2
7,2
7,2
7,2
7,2
7,2
7,2
7,2
7,2
7,2
7,2
7,2
7,2
7,2
8,2
8,2
8,2
8,2
8,2
8,2
8,2
8,2
8,2
8,2
8,2
8,2
8,2
8,2
8,2
8,2
9,2
9,2
9,2
9,2
9,2
9,2
9,2
9,2
9,2
9,2
9,2
9,2
9,2
8,2
8,2
8,2
7,2
7,2
7,2
7,2
6,2
6,2
6,2
5,2
5,2
5,2
5,2
6,2
6,2
6,2
7,2
7,2
7,2
7,2
8,2
8,2
8,2
8,2
8,2
8,2
8,2
8,2
8,2
8,2
8,2
8,2
8,2
8,2
8,2
8,2
8,2
8,2
8,2
9,2
10,2
10,2
11,3
13,4
15,5
15,5
16,7
19,8
19,8
19,8
23,14
23,14
25,18
25,18
27,25
27,36
27,45
27,55
28,65
27,74
27,74
26,83
25,87
25,87
24,86
22,81
21,75
21,75
19,68
17,61
17,61
16,54
15,49
15,49
14,44
12,38
12,38
12,37
12,36
12,35
12,35
12,37
13,42
14,48
14,48
17,61
19,72
21,79
21,79
22,83
23,88
23,88
23,88
23,88
23,88
23,88
22,93
21,92
21,92
21,91
19,89
19,89
18,86
16,82
15,79
14,76
14,76
14,74
15,76
15,76
15,79
16,79
16,78
17,80
17,83
17,83
17,82
17,82
17,80
17,77
17,77
18,79
18,82
19,84
19,85
19,85
18,81
17,77
17,77
17,75
16,73
16,73
16,73
16,74
16,76
16,76
16,76
15,73
15,73
15,69
14,67
14,67
14,66
14,66
14,65
14,65
14,64
15,65
16,71
16,71
17,73
19,78
20,80
20,79
20,80
20,83
20,83
20,86
19,87
19,87
19,91
19,91
20,92
19,93
20,97
20,97
20,99
20,97
20,96
20,96
19,97
18,93
18,90
17,86
17,86
17,84
17,84
17,84
17,79
18,78
18,76
17,73
17,74
17,74
17,73
17,73
17,75
17,75
17,81
17,87
17,90
17,90
18,93
19,92
19,92
21,93
21,94
21,94
22,91
22,89
23,87
23,87
24,90
24,94
25,98
24,101
24,101
23,103
22,105
21,105
21,105
21,105
21,103
21,104
21,104
21,104
21,102
21,102
21,102
22,101
22,99
22,97
22,97
22,95
23,96
23,96
23,95
24,96
24,96
25,98
26,96
26,96
27,96
27,98
27,98
28,102
28,105
29,110
29,110
32,113
33,115
33,120
33,120
34,128
35,133
35,135
36,140
37,140
37,140
37,136
35,130
35,130
32,122
30,117
29,112
29,112
28,106
28,106
28,106
30,107
30,107
30,107
32,114
34,113
35,118
35,118
36,126
35,128
36,132
37,139
37,139
37,140
35,138
34,137
33,136
32,134
31,131
31,131
32,133
33,134
33,134
35,134
35,134
34,131
33,124
34,115
37,114
37,114
38,114
37,119
37,123
37,129
37,131
37,131
37,139
36,147
37,158
37,158
36,161
36,161
36,161
35,165
32,151
32,151
30,136
30,122
30,113
30,113
30,107
30,103
30,103
30,101
29,97
27,87
23,74
18,53
15,38
12,26
10,16
9,8
9,8
7,2
7,0
7,0
7,0
7,1
7,1
7,1
7,0
7,0
7,0
7,0
7,0
7,0
7,1
7,1
7,2
7,2
7,2
7,2
7,2
7,2
7,2
6,2
6,2
5,2
5,2
5,2
5,2
5,2
5,2
6,2
6,2
6,2
6,2
6,2
7,2
8,2
8,2
8,2
8,2
9,2
9,2
9,2
9,2
8,2
8,2
8,2
8,2
8,2
8,2
8,2
8,2
8,2
8,2
8,2
8,2
8,2
8,2
8,2
8,2
8,2
7,2
7,2
7,2
7,2
7,2
7,2
7,2
7,2
6,2
6,2
6,2
5,2
4,2
4,2
4,2
4,2
4,2
4,2
4,2
4,2
5,2
5,2
5,2
6,2
6,2
6,2
6,2
6,2
6,2
6,2
6,2
6,2
6,2
7,2
7,2
7,2
7,2
7,2
7,2
7,2
7,2
8,2
8,2
8,2
8,2
7,2
7,2
7,2
6,2
6,2
6,2
6,2
6,2
6,2
7,2
7,2
7,2
7,2
7,2
7,2
7,2
7,2
7,2
7,2
7,2
7,2
7,2
7,2
7,2
6,2
6,2
6,1
6,1
7,2
7,2
7,2
7,2
7,2
7,2
7,2
7,2
7,2
7,2
7,2
7,2
7,2
6,2
6,2
6,2
6,2
6,2
6,2
6,2
6,2
7,1
7,1
7,1
7,2
7,2
7,2
7,2
6,2
6,2
6,2
6,2
6,2
6,2
6,2
6,2
6,2
6,2
6,2
6,2
7,2
7,2
7,2
7,2
7,2
7,2
7,2
7,2
7,2
7,2
7,2
7,2
7,2
7,2
7,2
7,2
7,2
7,2
7,2
7,2
7,2
8,2
8,2
8,2
7,2
7,2
7,2
7,2
7,2
7,2
7,2
7,2
7,2
7,2
7,2
7,2
7,2
7,2
7,2
8,2
8,2
8,2
8,1
8,1
8,1
8,1
7,2
7,2
7,2
7,2
7,2
6,2
6,2
6,2
5,2
5,2
5,2
5,2
5,2
5,2
5,2
6,2
6,2
6,2
6,2
6,2
5,2
5,2
5,2
4,2
4,2
5,2
5,2
5,2
5,2
5,2
5,2
5,2
5,2
5,2
5,2
6,2
6,2
6,2
7,2
7,2
7,2
7,2
7,2
7,2
7,2
7,2
8,2
8,2
8,2
8,2
8,2
7,2
7,2
7,2
7,2
7,2
7,2
7,2
7,2
7,2
7,2
7,2
7,2
7,2
7,2
6,2
6,2
6,2
6,2
7,2
7,2
7,2
7,2
7,2
7,2
7,2
7,2
7,2
7,2
7,2
7,2
7,2
6,2
6,2
6,2
6,2
7,2
7,2
7,2
7,2
7,2
7,2
7,2
7,2
7,2
7,2
7,2
7,2
8,2
8,2
7,2
7,2
7,2
7,2
6,2
6,2
6,2
5,2
5,2
6,2
6,2
6,2
7,2
7,2
7,2
7,2
7,2
7,2
7,2
7,2
7,2
7,2
7,2
7,2
7,2
7,2
7,2
7,2
7,2
7,2
7,2
7,2
7,2
7,2
7,2
6,2
6,2
6,2
6,2
6,2
7,2
7,2
7,2
7,2
7,2
8,2
8,2
8,2
8,2
7,2
6,2
6,2
6,2
6,2
6,2
6,2
6,2
6,2
6,2
6,2
6,2
6,2
6,2
6,2
6,2
6,2
6,2
5,2
5,2
6,2
6,2
6,2
7,2
7,2
7,2
7,2
7,2
7,2
7,2
7,2
8,2
9,3
11,3
12,3
12,3
12,3
21,6
21,6
27,8
33,11
40,14
40,14
49,19
54,24
60,29
66,34
72,39
72,42
71,45
72,46
74,47
74,47
77,49
82,51
88,50
88,50
93,49
94,46
94,46
93,45
95,45
95,45
97,45
95,45
97,46
100,45
96,43
96,43
91,42
88,40
78,36
78,36
68,31
57,26
57,26
34,15
22,9
22,9
15,6
10,4
7,2
7,2
6,1
5,0
5,0
5,1
6,1
6,1
6,1
6,1
6,1
6,2
6,2
6,2
6,2
6,2
6,2
6,2
6,2
6,2
7,2
7,2
8,2
8,2
8,2
8,2
8,1
7,1
6,1
6,1
6,1
6,1
6,1
6,1
6,1
6,1
6,2
6,2
6,2
6,2
6,2
6,2
6,2
6,2
6,2
6,2
6,2
6,2
6,2
6,2
6,2
6,2
7,2
7,2
7,2
7,2
7,2
7,2
7,2
8,2
7,2
7,2
7,2
6,1
6,1
6,2
6,2
6,2
6,2
6,2
6,2
6,2
6,2
6,2
6,2
6,2
6,2
6,2
7,2
7,2
7,2
7,2
7,2
7,2
7,2
7,2
7,2
7,2
7,2
7,2
7,2
7,2
7,2
7,2
7,2
7,2
7,2
7,2
6,2
6,2
6,2
7,2
6,2
6,2
6,2
6,2
6,2
6,2
6,2
6,2
6,2
6,2
7,2
7,2
8,2
8,2
8,2
8,2
7,2
7,2
6,2
6,2
5,2
5,2
5,2
5,2
6,2
6,1
6,1
6,1
6,1
7,1
7,2
8,2
9,2
9,2
9,2
9,2
8,2
8,2
8,2
7,2
7,2
6,2
6,2
6,2
6,2
5,2
5,2
5,2
5,2
5,2
5,2
5,2
5,2
5,2
5,2
5,2
5,2
5,2
5,2
5,2
5,2
5,2
5,2
5,2
5,3
5,3
6,3
6,4
6,6
6,6
6,6
5,7
5,7
5,9
6,10
6,10
6,10
6,11
6,11
6,11
6,12
6,11
6,11
6,11
5,10
5,8
5,7
6,6
6,6
7,7
7,9
7,9
8,12
9,16
9,16
10,21
11,26
12,36
13,43
15,52
15,57
15,57
16,61
17,66
17,66
17,65
16,64
16,59
16,59
16,53
16,53
16,51
16,48
15,49
15,47
15,47
14,46
13,48
13,48
13,49
14,52
13,55
13,55
13,58
14,60
14,60
15,61
15,61
15,61
14,60
14,62
14,62
14,63
14,67
13,68
13,68
13,70
13,69
13,69
13,67
13,66
13,66
13,68
14,68
14,68
16,77
16,79
16,79
16,79
15,77
15,73
15,73
15,69
15,66
15,66
16,65
16,65
16,65
16,65
16,66
16,66
16,65
17,68
17,68
16,71
16,75
17,79
17,79
17,80
17,82
17,82
17,82
18,83
18,83
18,80
17,69
15,57
13,44
13,44
11,31
10,24
9,15
9,15
7,8
7,4
6,0
6,0
6,0
6,1
6,1
6,1
6,0
6,0
6,0
6,0
7,1
7,1
7,1
7,1
7,2
7,2
7,2
7,2
7,2
7,2
7,2
7,2
7,2
7,2
7,2
8,2
8,2
8,2
8,2
8,2
8,2
8,2
7,2
7,2
7,2
7,2
7,2
7,1
8,1
7,1
7,1
7,1
7,1
7,1
7,1
7,2
7,2
7,2
7,2
6,2
6,2
6,2
6,2
6,2
5,2
5,2
5,2
6,2
6,2
6,2
7,2
8,2
8,2
8,2
8,2
8,2
8,2
8,2
8,2
7,2
7,2
7,2
7,2
7,2
7,2
7,2
7,2
7,2
7,2
7,2
7,2
8,2
8,2
8,2
8,2
8,2
8,2
8,2
7,2
7,2
7,2
7,2
7,2
7,2
7,2
8,2
8,2
8,2
8,2
8,2
8,2
8,2
7,2
7,2
7,2
7,2
7,2
7,2
7,2
7,2
7,2
6,1
6,1
6,1
6,2
6,2
6,2
7,2
7,2
7,2
7,2
8,2
8,2
8,2
8,2
8,2
9,2
9,2
9,2
9,2
9,2
9,2
9,2
8,2
8,2
9,2
8,2
8,2
8,2
8,2
8,2
7,2
7,2
7,2
7,2
7,2
6,2
7,2
7,2
8,2
8,2
8,2
9,2
9,2
9,2
10,2
10,2
10,2
10,2
9,2
9,2
8,2
8,2
8,2
8,2
7,2
7,2
7,2
8,2
8,2
8,2
8,2
8,2
8,2
8,2
9,2
8,1
8,2
8,2
8,2
7,2
7,2
7,2
7,2
7,1
7,1
8,2
8,2
8,2
9,2
9,2
9,2
8,2
8,2
7,2
7,2
7,2
7,2
7,2
7,2
8,2
8,2
8,2
9,1
9,2
9,2
9,2
8,2
8,2
7,2
7,2
6,2
6,2
6,2
6,2
6,2
5,2
5,2
5,2
6,2
6,2
6,2
6,2
6,2
6,2
6,2
6,2
6,2
7,2
7,2
7,2
8,2
8,2
8,2
8,2
8,2
7,2
7,2
7,2
7,2
7,2
8,2
8,2
8,2
8,2
8,2
8,2
8,2
8,2
8,2
8,2
7,2
7,2
7,2
7,2
7,2
7,2
6,2
6,2
6,2
6,2
6,2
7,2
7,2
7,2
7,2
7,2
7,2
7,2
7,2
7,2
7,2
7,2
7,2
6,2
6,2
6,2
7,2
7,2
6,2
6,2
6,1
6,1
6,1
6,1
6,1
6,1
6,1
6,2
6,2
6,2
6,2
6,2
6,2
6,2
6,2
6,2
6,2
6,2
6,2
7,2
7,2
7,2
7,2
7,2
7,2
7,2
7,2
7,2
7,2
6,2
7,2
7,2
7,1
7,1
7,2
6,2
6,2
6,2
5,2
5,2
5,2
4,2
4,2
4,2
5,2
5,2
5,2
5,2
6,2
6,2
7,2
7,2
7,1
7,1
7,1
6,1
6,1
6,2
6,2
6,2
6,2
6,2
6,2
6,2
5,2
5,2
5,2
5,2
5,2
5,2
6,2
6,2
6,2
6,2
6,2
6,2
6,2
7,2
7,2
7,2
7,2
7,2
7,2
7,2
7,2
7,2
7,2
7,2
7,2
7,2
7,2
7,2
7,2
7,2
7,2
7,2
7,2
7,2
7,2
7,2
7,2
7,2
7,2
7,2
7,2
7,2
7,2
7,2
8,2
8,2
8,2
8,2
8,2
8,2
7,2
7,2
7,2
7,2
7,2
7,2
6,2
6,2
7,2
7,2
7,2
7,2
7,2
7,2
7,2
7,2
7,2
7,2
7,2
7,2
8,2
8,2
8,2
9,2
9,2
9,2
9,2
9,2
9,2
9,2
9,2
9,2
9,2
9,2
8,2
8,2
8,2
8,2
8,2
8,2
8,2
8,2
8,2
8,2
8,2
8,2
8,2
7,2
7,2
7,2
6,2
6,2
6,2
6,2
6,2
6,2
6,2
6,2
6,2
6,2
7,2
7,2
7,2
7,2
7,2
7,2
7,2
7,1
7,2
7,2
6,2
6,2
6,2
6,2
6,2
6,2
6,2
7,2
7,2
7,2
7,2
7,2
7,2
7,2
7,2
7,2
7,2
7,2
7,2
7,2
7,2
7,2
7,2
7,2
7,2
7,2
7,2
7,2
7,2
6,2
6,2
5,2
5,2
5,2
5,2
6,2
6,2
6,2
6,2
6,2
6,2
6,2
6,2
6,2
6,2
6,2
7,2
7,2
7,2
7,2
8,2
8,2
8,2
8,2
8,2
8,2
7,2
7,2
6,2
6,2
6,2
5,2
5,2
5,2
5,2
5,2
5,2
5,2
5,2
6,2
6,2
6,2
6,2
6,2
6,2
6,2
6,2
6,2
6,2
6,2
6,2
7,2
7,2
7,2
6,2
6,2
6,2
6,2
6,2
6,2
6,2
6,2
6,2
5,2
6,2
6,2
6,2
6,2
6,2
6,2
7,2
7,2
7,2
7,2
7,2
7,2
8,2
8,2
7,2
7,2
7,2
7,2
6,2
6,2
6,2
6,2
6,2
6,2
6,2
6,2
7,2
7,2
7,2
7,2
7,2
7,2
7,2
7,2
7,2
8,2
8,1
8,1
8,1
7,1
7,1
6,2
6,2
6,2
6,2
6,2
6,2
6,2
7,2
7,2
7,1
7,1
7,1
7,2
6,1
6,1
6,1
6,1
5,1
5,1
5,1
5,2
5,1
6,2
6,2
6,2
6,2
6,2
7,2
7,2
7,2
7,2
6,2
6,2
6,2
6,2
7,2
7,2
7,2
7,2
7,2
8,2
7,2
7,2
7,2
7,2
7,2
7,2
6,2
6,2
6,2
6,2
6,2
5,2
5,2
5,2
5,2
5,2
6,2
6,2
7,2
7,2
7,2
8,1
8,2
8,2
8,2
8,2
8,2
7,2
6,2
6,2
6,2
6,2
6,2
6,2
6,2
6,2
6,2
6,2
6,2
6,2
6,2
6,2
7,2
7,2
7,2
7,2
7,2
7,2
7,2
7,2
7,2
7,2
7,2
6,2
6,2
6,2
6,2
6,2
6,2
6,2
6,2
6,2
6,2
6,2
7,2
7,2
7,2
7,2
7,2
7,2
7,2
7,2
7,2
7,2
7,2
7,2
7,2
7,2
7,2
7,2
7,2
7,2
7,2
7,2
7,2
7,2
7,2
7,2
7,2
6,2
6,2
6,2
6,1
6,1
6,1
6,1
6,2
7,2
7,2
7,2
7,2
7,2
7,2
7,2
7,2
7,2
7,2
7,2
7,2
7,2
7,2
7,2
7,2
7,2
7,2
6,2
6,2
6,2
6,2
6,2
6,2
6,2
6,2
5,2
5,1
5,1
5,1
5,2
6,2
6,2
6,2
7,2
7,2
7,2
7,2
6,2
7,2
7,2
7,2
7,2
7,2
7,2
7,2
7,2
6,2
6,2
6,2
6,2
6,2
6,2
6,2
6,2
7,2
7,2
7,2
7,2
7,2
7,2
7,2
7,2
7,2
7,2
7,2
7,2
7,2
7,2
6,2
6,2
6,2
6,2
6,2
6,2
6,2
6,2
6,2
6,2
6,2
6,2
6,2
6,2
6,2
6,2
6,2
6,2
5,2
5,2
5,2
5,2
5,2
5,2
5,2
5,2
5,2
5,2
5,2
5,2
5,2
6,2
6,2
6,2
6,2
6,2
6,2
6,2
6,2
6,2
6,2
6,2
6,2
6,2
6,2
6,2
6,2
5,2
5,1
5,1
5,1
5,2
5,2
5,2
5,2
6,2
6,2
6,2
6,2
6,2
6,2
6,2
6,2
6,2
6,2
6,2
6,2
6,2
6,2
6,2
6,2
6,2
6,2
7,2
7,2
8,2
8,2
8,2
8,2
8,2
7,2
7,2
7,2
7,2
7,2
7,2
6,2
6,2
5,2
5,2
5,2
5,1
5,1
5,1
5,1
5,1
6,1
6,1
6,1
6,1
6,1
6,1
6,1
5,2
5,2
5,2
5,2
5,2
5,2
5,2
5,2
5,2
5,2
6,2
6,2
6,2
6,2
6,2
6,2
6,2
6,2
5,2
5,2
5,2
5,2
5,2
5,2
5,2
5,2
6,2
6,2
6,2
7,2
7,2
8,3
9,3
10,3
10,3
11,3
11,3
11,3
10,3
10,3
10,3
9,2
9,2
9,2
8,2
7,2
7,2
6,2
6,2
6,2
6,2
5,2
5,2
5,2
5,2
4,2
4,2
4,2
4,2
4,2
5,2
5,2
5,2
5,2
5,2
5,2
6,2
6,2
6,2
6,2
6,2
6,2
6,2
6,2
6,2
6,2
6,2
6,2
6,2
6,2
6,2
6,2
5,2
5,2
5,2
5,2
5,2
6,2
6,2
6,2
6,2
6,1
6,1
6,1
6,1
6,1
6,1
6,2
6,2
6,2
5,2
5,2
6,2
6,2
6,2
6,2
6,2
6,2
6,2
6,2
6,2
6,2
6,2
6,2
6,2
6,2
6,2
6,2
6,2
7,2
7,2
7,2
7,2
7,2
6,2
6,2
6,2
6,2
6,2
6,2
6,2
6,2
6,2
6,2
7,2
7,2
8,3
7,3
8,4
8,5
8,7
8,9
8,13
8,13
8,19
8,19
8,19
7,28
7,28
6,32
5,35
5,35
5,36
5,37
5,37
5,37
5,37
6,38
7,38
7,38
8,37
8,38
9,39
9,39
9,40
10,40
10,39
10,40
10,39
9,39
9,39
9,38
9,38
9,38
9,38
10,39
10,40
11,41
11,41
11,42
11,42
11,42
10,41
10,41
9,40
9,40
8,38
8,38
7,37
7,37
7,37
7,37
7,37
8,37
8,37
8,36
8,36
8,38
8,38
8,44
8,49
8,49
7,49
7,44
7,37
7,37
7,26
7,19
8,13
8,8
8,3
8,1
8,1
7,0
7,0
7,0
7,0
7,0
7,0
7,0
7,1
6,1
6,2
6,2
6,2
6,2
5,2
5,2
5,2
5,2
5,2
5,2
5,2
5,2
5,2
5,2
5,1
5,1
4,1
4,1
4,1
4,1
4,1
4,1
4,1
4,1
4,1
4,1
4,1
5,1
5,1
5,1
5,1
5,1
5,1
5,1
5,1
5,1
5,1
5,1
4,2
4,2
4,2
4,2
4,2
4,2
4,2
4,2
4,2
4,2
4,2
4,2
4,2
5,2
5,2
5,2
5,2
5,2
5,2
5,2
5,2
5,2
5,2
5,2
6,2
7,3
7,3
10,4
12,4
12,4
16,6
19,7
19,7
24,9
32,13
32,13
39,16
46,21
46,21
52,26
61,31
61,31
75,40
86,46
86,46
95,51
105,53
105,53
109,53
109,54
109,54
110,55
110,55
110,55
101,54
98,53
98,53
98,52
99,52
99,53
99,53
106,57
116,59
116,59
120,59
124,57
128,55
128,55
127,54
128,54
128,54
128,54
130,55
130,55
130,57
127,60
127,60
124,61
121,62
121,62
114,60
106,58
106,58
101,58
99,59
99,59
99,61
105,63
105,63
112,63
113,62
113,62
113,62
113,62
113,62
113,62
113,62
113,62
113,62
113,62
113,62
113,62
113,62
113,62
113,62
113,62
113,62
113,62
113,62
113,62
113,62
113,62
113,62
113,62
113,62
113,62
113,62
113,62
113,62
113,62
113,62
113,62
113,62
113,62
113,62
113,62
113,62
113,62
113,62
113,62
113,62
113,62
113,62
113,62
113,62
113,62
113,62
113,62
113,62
113,62
113,62
113,62
113,62
113,62
113,62
113,62
113,62
113,62
113,62
113,62
113,62
113,62
113,62
113,62
113,62
113,62
113,62
113,62
113,62
113,62
113,62
113,62
113,62
113,62
113,62
113,62
113,62
113,62
113,62
113,62
113,62
113,62
113,62
113,62
113,62
113,62
113,62
113,62
113,62
113,62
113,62
113,62
113,62
113,62
113,62
113,62
113,62
113,62
113,62
113,62
113,62
113,62
113,62
113,62
113,62
0,0
11,10
25,21
41,32
41,32
56,41
72,50
77,52
77,52
92,55
107,59
116,59
116,59
126,59
129,58
129,56
131,56
131,56
132,57
134,58
142,59
142,59
148,58
149,57
147,56
147,56
144,55
136,54
131,54
131,54
124,54
116,55
116,55
116,55
111,54
111,54
109,53
105,50
106,50
106,50
106,50
110,52
110,52
115,54
115,54
115,54
116,54
114,54
114,54
112,55
109,56
109,56
112,55
112,53
108,51
108,51
108,48
105,46
104,46
103,43
103,43
102,40
102,39
102,39
102,39
100,39
97,39
96,41
96,41
95,41
91,39
92,37
89,34
89,34
89,34
75,28
65,23
65,23
55,20
46,17
46,17
38,14
37,14
35,14
35,14
35,14
37,15
37,15
40,17
42,17
41,17
36,14
31,12
31,12
25,10
20,8
16,7
11,5
9,3
9,3
7,3
6,2
6,2
6,2
6,1
6,1
6,1
6,1
7,2
7,2
7,2
7,2
8,2
7,2
7,2
7,2
7,2
7,2
7,2
7,2
7,2
7,2
7,2
8,2
8,1
8,1
8,1
9,1
9,2
9,2
9,2
8,2
7,2
7,2
7,2
6,2
6,2
6,2
6,2
6,2
6,2
6,2
6,2
7,2
7,2
7,2
7,2
7,2
7,2
6,2
6,2
6,2
5,2
5,2
5,2
5,2
5,2
5,2
6,2
7,2
7,2
8,2
8,2
8,2
9,2
9,2
8,2
8,2
8,2
8,2
8,2
8,2
8,2
8,2
9,2
9,2
9,2
10,2
12,2
14,2
14,2
15,2
17,2
17,2
17,2
18,2
17,2
17,2
17,2
16,2
15,2
15,2
15,2
16,2
16,2
18,2
18,2
19,2
19,2
18,2
17,2
17,2
17,2
16,2
16,2
16,2
15,2
15,2
15,2
15,2
15,2
15,2
14,2
14,2
15,2
16,2
16,2
16,2
16,2
16,2
16,2
16,2
16,2
16,2
15,2
16,2
16,2
16,2
16,2
16,2
16,2
15,2
15,2
15,2
15,2
15,2
15,2
15,2
16,2
16,2
16,2
17,1
17,1
16,1
16,1
16,1
16,2
15,2
15,2
15,2
14,2
14,2
13,2
13,2
14,2
14,2
14,2
13,1
13,1
13,1
12,1
12,1
11,1
10,1
10,1
10,1
9,1
8,2
8,2
8,2
8,2
8,2
8,2
9,2
9,2
9,2
8,2
8,2
8,2
8,1
8,1
8,1
8,1
8,1
8,1
7,1
7,1
7,1
7,1
7,2
7,2
7,2
7,2
7,2
7,2
7,2
7,2
7,2
7,2
8,2
8,2
8,2
8,2
8,2
8,2
8,2
7,2
7,2
7,2
6,2
6,2
6,2
6,2
6,2
6,2
6,2
6,2
6,2
6,2
6,2
5,2
5,2
4,2
4,2
4,2
4,2
4,2
4,2
3,2
3,2
3,2
3,2
3,2
3,2
3,2
4,1
4,1
5,1
6,1
6,1
6,1
7,1
8,1
8,1
8,2
9,2
9,2
9,2
9,2
8,2
8,2
7,2
7,2
6,2
6,2
6,2
6,2
6,2
6,2
6,2
6,2
6,2
6,2
6,2
6,2
6,2
6,2
6,2
6,2
6,2
6,2
6,2
6,2
6,2
6,2
6,2
6,2
6,2
6,2
6,2
6,2
6,2
5,2
5,2
5,2
5,2
5,2
5,2
6,2
6,2
6,2
6,2
5,2
5,2
5,2
5,1
5,1
5,1
6,1
6,1
6,1
6,2
6,2
6,2
6,1
6,1
6,2
6,2
6,2
5,2
5,2
6,2
6,2
5,2
5,2
5,2
5,2
6,2
6,2
6,2
6,2
7,2
7,2
7,2
7,2
8,2
8,2
8,2
8,2
8,2
8,2
8,2
8,2
8,2
8,2
8,2
7,1
7,1
8,1
8,1
8,1
8,1
8,1
7,2
7,2
6,2
6,2
6,2
6,2
6,2
5,2
5,2
5,2
5,2
6,2
6,2
6,2
7,2
9,2
9,2
12,3
14,4
14,4
16,5
18,7
21,8
21,8
24,10
29,13
29,13
34,15
38,17
38,17
40,19
44,21
51,24
58,27
58,27
65,31
73,34
77,39
77,39
78,44
82,47
82,47
82,47
95,56
95,56
101,58
106,58
106,58
111,59
111,61
111,61
112,69
110,72
110,72
110,75
112,80
118,84
118,84
123,85
125,83
125,83
127,81
132,79
135,78
139,74
139,74
146,73
153,72
153,72
150,70
147,68
147,66
147,66
139,63
130,61
130,61
123,59
110,55
110,55
97,49
81,39
68,31
63,29
63,29
63,29
35,14
35,14
24,10
17,6
17,6
11,3
6,1
6,1
5,1
4,1
5,1
5,1
6,1
7,1
7,1
8,1
8,2
8,2
9,2
9,2
9,2
8,2
8,2
8,2
8,2
7,2
7,2
7,2
7,2
7,2
7,2
7,2
8,2
9,2
9,2
9,2
9,2
9,2
9,2
8,2
8,2
7,2
7,2
7,2
7,2
7,2
7,2
7,1
7,1
7,1
7,1
8,1
8,1
8,1
8,1
8,1
8,1
9,1
9,1
9,1
9,1
8,1
8,1
8,1
8,2
8,2
8,2
8,2
8,2
8,2
8,2
8,2
8,2
8,2
9,2
9,2
9,2
9,2
8,2
8,2
8,2
7,2
7,2
7,2
7,2
7,1
7,1
7,1
7,2
7,2
7,2
7,2
7,2
7,2
7,2
7,2
7,2
7,2
7,2
7,2
7,2
7,2
7,2
7,2
7,2
7,2
8,2
8,2
8,2
8,2
8,2
8,2
8,2
8,2
8,2
8,2
7,2
7,2
6,2
6,2
6,2
6,2
6,2
6,2
6,2
6,2
6,2
6,2
6,2
6,2
6,2
6,2
6,2
6,2
6,2
6,2
6,2
7,2
7,2
7,2
7,2
7,2
7,2
7,2
7,2
7,2
7,2
7,2
7,2
8,3
8,3
9,3
9,3
9,3
10,3
11,3
11,3
12,3
13,3
13,3
13,3
12,3
13,4
12,4
12,4
12,4
13,4
14,4
14,4
14,4
14,4
15,4
15,4
16,4
17,4
17,4
18,4
17,4
17,4
17,4
17,4
16,4
16,4
16,4
16,4
17,5
18,5
18,5
18,5
19,6
19,6
20,6
23,6
26,7
26,7
27,7
28,8
28,8
28,8
27,8
28,8
28,8
28,8
28,9
30,10
32,12
34,15
36,18
39,22
44,28
44,28
44,28
61,44
61,44
71,49
79,49
89,51
89,51
98,52
105,55
117,61
129,71
139,77
147,81
149,83
149,83
150,83
157,83
163,82
163,82
162,79
169,78
172,78
170,78
170,79
170,79
164,79
164,78
161,79
161,79
156,78
152,78
154,79
154,79
158,79
163,81
176,84
190,86
198,86
198,86
198,86
215,83
215,83
220,82
219,83
214,81
204,81
193,81
189,81
189,81
183,83
176,86
178,88
178,88
180,91
186,93
186,93
196,95
205,93
207,91
207,91
210,89
207,89
205,88
205,88
196,88
190,89
187,90
187,90
185,90
183,88
183,87
185,82
188,78
183,73
172,69
172,69
163,66
152,63
152,63
152,63
152,62
149,62
149,61
149,61
150,60
148,57
148,57
141,51
124,44
110,38
110,38
94,33
78,27
78,27
62,22
44,16
33,12
24,9
24,9
17,7
12,5
8,3
8,3
6,2
6,2
6,2
5,2
5,1
5,1
5,1
5,1
5,1
5,1
5,2
5,2
5,2
6,2
6,2
6,2
6,2
6,2
6,2
5,2
5,2
5,2
5,2
5,2
5,2
5,2
5,2
6,2
6,2
6,2
7,2
7,1
8,1
8,1
8,2
8,2
8,2
8,2
8,2
8,2
8,2
8,2
8,2
8,2
8,2
8,2
8,2
7,2
8,2
8,2
8,2
8,2
8,2
8,2
8,2
8,2
8,2
7,2
7,2
7,2
6,2
6,2
6,2
5,2
5,2
5,2
6,2
5,2
5,2
5,2
5,2
5,2
6,2
6,2
6,2
7,2
8,2
8,2
8,2
8,2
8,2
8,2
8,2
8,2
8,2
8,2
7,2
7,2
7,2
7,2
7,2
7,2
7,2
7,2
7,2
7,2
7,2
7,2
7,2
7,2
7,2
7,2
6,2
6,2
6,2
6,2
6,2
6,2
6,2
6,2
6,2
6,2
6,2
6,2
6,2
6,2
7,2
7,2
7,2
8,2
8,2
8,2
8,2
8,2
8,2
8,2
8,2
7,2
7,2
7,2
7,2
7,2
7,2
7,2
7,2
7,2
8,2
7,2
7,2
7,2
7,2
7,2
7,2
7,2
7,2
7,2
7,2
7,2
7,2
8,2
8,2
7,2
7,2
7,2
6,2
6,2
6,2
6,2
5,2
5,2
5,2
6,2
6,2
6,2
5,2
5,2
5,2
5,2
5,2
5,2
5,2
5,2
5,2
5,2
6,2
6,2
7,2
7,2
7,2
7,2
7,2
7,2
7,2
7,2
7,2
8,2
8,2
8,2
8,2
9,2
9,1
9,1
9,1
10,2
10,2
9,2
9,2
9,2
9,2
8,2
8,2
8,2
8,2
7,2
7,2
7,2
7,2
7,2
7,2
7,1
7,1
6,1
6,2
6,2
6,2
6,2
5,2
5,2
5,2
5,2
5,2
4,2
4,2
4,2
5,2
5,2
5,2
5,2
5,2
6,2
7,2
7,2
8,2
9,2
9,2
9,2
9,2
9,2
8,2
8,2
8,2
8,2
8,2
8,2
8,1
8,1
8,1
8,1
8,1
8,1
9,1
8,2
8,2
8,2
8,2
7,2
7,2
7,2
7,2
7,2
7,2
7,2
7,2
6,2
6,2
6,2
6,2
6,2
6,2
6,2
6,2
6,2
6,2
6,2
6,1
6,1
6,1
7,1
7,1
7,1
7,2
7,2
7,2
7,2
7,2
7,2
7,2
7,2
7,2
7,2
7,2
7,2
7,2
7,2
7,2
7,2
6,2
6,2
6,2
6,2
6,2
6,2
6,2
6,2
6,2
6,2
6,2
7,2
7,2
7,2
7,2
7,2
7,2
7,2
7,2
7,2
8,2
8,2
8,2
8,2
8,2
8,2
8,2
9,2
8,2
8,2
8,2
8,2
7,2
7,2
7,2
6,2
6,2
6,2
6,2
6,2
6,2
6,2
6,2
6,2
6,2
6,2
6,1
6,1
7,1
7,1
7,1
7,1
6,2
6,2
6,2
6,2
6,2
6,2
7,2
7,2
8,2
8,2
7,2
7,2
6,2
6,2
6,2
6,2
5,2
5,2
5,2
5,2
5,2
6,2
6,2
6,2
6,2
6,2
6,2
6,2
6,2
6,2
5,2
5,1
5,1
5,1
5,1
6,1
6,1
6,1
6,1
6,1
7,2
7,2
7,2
7,2
7,2
7,2
8,2
8,2
8,2
8,2
8,2
8,2
8,2
8,2
8,2
8,2
8,2
8,2
8,2
8,2
7,2
7,2
7,2
7,2
7,2
7,2
7,2
7,2
7,2
7,2
7,2
7,2
7,2
7,2
8,2
8,2
8,2
8,2
8,2
8,2
8,2
7,2
6,2
6,2
6,2
5,2
5,2
5,2
5,2
4,2
4,2
4,2
4,2
5,2
5,2
5,2
5,2
5,2
5,2
6,2
6,2
6,2
6,2
7,2
8,2
9,2
9,2
11,2
11,2
12,3
13,3
13,3
14,4
15,4
16,4
17,5
21,6
21,6
26,8
29,9
35,12
35,12
35,12
54,20
54,20
69,26
80,31
89,37
89,37
97,44
101,49
101,49
105,57
111,64
118,66
126,67
135,69
135,69
147,68
153,66
153,66
159,67
163,69
166,73
176,81
184,88
186,90
191,90
197,86
206,82
207,77
205,75
196,70
190,70
190,70
188,74
184,79
184,79
184,79
180,87
180,87
182,87
191,85
204,82
218,81
218,81
220,78
216,76
216,76
210,73
200,69
183,62
183,62
165,54
135,43
135,43
109,35
84,27
63,20
45,14
45,14
26,8
16,5
10,3
10,3
5,2
3,1
2,0
2,1
2,1
2,1
3,1
4,1
4,1
4,2
5,2
5,2
5,2
4,2
4,2
4,2
4,2
5,2
5,2
5,2
5,2
5,2
5,2
5,2
5,2
5,2
5,2
6,2
6,2
6,2
7,2
7,2
7,2
8,2
9,2
9,2
9,2
9,2
9,2
9,2
9,2
9,2
9,2
9,2
10,2
10,2
10,2
10,2
10,2
9,2
9,2
8,1
8,2
8,2
8,2
8,2
7,2
7,2
7,2
7,2
8,2
8,2
8,2
8,2
8,2
8,2
8,2
8,2
8,2
8,2
8,2
9,3
11,3
12,4
13,5
16,6
20,7
23,9
23,9
27,11
31,14
39,17
39,17
49,22
60,27
60,27
71,34
79,42
90,49
100,60
103,64
116,75
116,75
116,75
152,89
164,94
175,97
175,97
183,99
196,100
207,100
207,100
216,98
214,97
207,97
207,97
203,97
199,96
199,96
202,94
199,92
199,89
199,91
199,91
196,92
196,93
195,93
192,91
194,89
199,88
198,85
190,81
190,81
190,79
190,79
194,78
194,82
198,84
198,84
207,87
216,89
221,91
221,91
218,93
218,93
217,93
215,90
212,87
212,87
204,86
200,85
199,84
200,83
200,83
205,82
204,82
207,84
203,86
203,86
199,87
190,90
189,93
185,91
187,88
187,83
184,79
185,78
183,79
186,82
186,82
190,83
193,88
193,88
192,89
193,87
191,83
191,83
194,80
191,77
193,76
193,76
193,76
193,76
193,76
219,80
226,84
231,89
231,89
227,91
224,93
224,96
224,96
218,94
206,92
185,86
185,86
178,82
173,77
169,72
171,69
171,69
174,69
174,69
184,70
187,69
187,69
180,66
170,63
156,59
139,53
139,53
113,43
94,36
77,29
60,23
47,18
47,18
32,13
23,12
16,11
16,11
16,11
7,16
5,22
5,22
3,26
3,30
3,34
3,34
3,36
4,38
4,38
4,38
5,39
6,40
6,40
7,39
7,39
7,38
7,38
7,38
7,38
7,38
7,38
7,38
7,39
7,40
7,41
7,41
7,41
6,42
6,42
6,42
6,43
6,44
7,44
7,44
7,44
8,44
8,44
8,44
8,43
8,43
8,43
8,43
8,43
8,52
8,57
8,57
8,63
9,65
10,58
12,49
13,39
15,30
15,30
18,21
22,12
25,11
25,11
28,12
33,15
38,23
38,23
39,26
43,36
45,53
46,66
45,78
46,87
47,94
49,103
48,108
48,108
51,113
53,124
53,124
53,134
53,145
53,145
53,145
51,151
51,151
49,150
48,146
47,143
47,143
47,143
46,144
46,144
43,144
43,144
42,146
41,153
41,153
41,160
39,177
36,193
36,193
35,192
33,171
33,171
33,150
33,132
32,119
32,119
31,111
32,107
32,108
32,108
32,108
32,117
32,145
32,182
33,236
36,284
41,318
41,318
43,340
42,336
42,336
42,336
34,288
34,288
28,274
24,289
22,332
20,357
20,357
19,343
18,286
17,244
17,206
17,174
17,174
16,154
15,133
15,133
15,136
15,140
15,162
15,191
15,191
15,216
14,218
14,202
14,202
14,175
14,152
13,139
12,130
12,130
12,118
11,118
11,118
10,126
11,142
11,152
11,152
11,156
11,178
11,178
11,178
11,215
11,219
11,219
11,200
10,161
10,152
10,152
10,129
9,110
9,104
9,95
9,95
9,82
9,66
9,66
8,47
8,35
8,27
8,27
7,23
8,19
8,18
8,20
8,20
8,23
8,28
9,35
10,47
10,52
10,52
10,64
11,70
11,68
11,68
10,64
10,60
10,60
10,55
9,51
9,49
9,49
9,49
9,47
9,48
9,48
8,48
8,48
8,48
9,50
9,51
9,53
9,54
9,54
9,53
10,51
11,48
11,48
11,45
12,43
12,41
12,38
12,38
12,40
12,43
12,44
12,44
13,42
14,34
15,26
15,26
16,20
16,14
16,9
16,5
16,2
16,2
16,1
15,0
15,0
15,0
15,0
15,0
14,1
14,1
13,1
12,2
12,2
12,2
12,2
15,2
18,2
18,2
18,2
18,2
18,2
17,2
16,2
16,1
16,1
15,1
15,1
15,1
14,1
14,1
13,1
13,2
13,2
12,2
12,2
11,2
11,2
10,2
10,2
11,2
11,2
12,2
12,2
12,2
13,2
14,2
14,2
14,2
14,2
14,2
14,2
15,2
16,2
16,2
17,2
17,2
18,2
17,2
16,2
16,2
16,2
15,2
15,2
15,2
15,2
14,2
14,2
14,2
14,2
13,2
12,2
11,2
11,2
10,2
9,2
9,2
9,2
9,2
10,2
10,1
10,1
10,1
10,1
11,2
11,2
10,2
10,2
10,2
9,2
9,2
9,2
9,2
8,2
8,2
8,2
8,2
8,2
8,2
8,2
8,2
8,2
8,2
8,2
9,2
9,2
9,2
9,2
10,2
10,2
11,2
11,2
11,2
11,2
10,2
9,2
8,2
8,2
8,2
7,2
7,2
8,2
8,2
8,2
9,2
9,2
9,2
9,2
10,2
10,2
10,2
9,2
9,2
9,2
9,2
8,2
8,2
8,2
8,2
8,2
8,2
8,2
8,2
8,2
8,2
9,1
9,2
9,2
9,2
9,2
9,2
9,2
9,2
9,2
9,2
8,2
8,2
7,2
7,2
6,2
6,2
6,2
6,2
6,2
6,2
6,2
7,1
7,1
7,1
7,1
7,1
7,1
8,2
8,2
8,2
8,2
8,2
8,1
8,2
8,2
8,2
8,1
7,2
7,2
7,2
7,2
7,2
7,2
7,2
7,2
7,2
7,2
7,2
7,2
6,2
6,2
6,2
6,2
6,2
6,2
6,2
6,2
6,2
7,2
7,2
7,2
7,2
7,2
7,2
7,2
7,2
8,2
8,2
8,2
8,2
9,2
9,2
9,2
9,2
9,2
9,2
9,2
9,2
8,2
8,2
8,2
8,2
8,2
8,2
8,2
8,2
8,2
8,2
8,2
8,2
8,2
8,2
8,2
8,2
7,2
7,2
7,2
7,2
7,2
7,2
7,2
7,2
7,2
7,2
8,2
8,2
8,2
8,2
8,2
8,2
8,2
8,2
8,2
8,2
8,2
8,2
8,2
7,2
7,2
7,2
7,2
7,2
7,2
7,2
7,2
7,2
7,2
7,2
7,2
7,2
8,2
8,2
8,2
8,2
8,2
8,2
8,2
8,2
8,2
8,1
7,1
7,1
7,1
7,2
7,2
7,2
7,2
6,2
6,2
6,2
6,2
6,2
6,2
6,2
6,2
7,2
7,2
7,2
6,2
6,2
6,2
7,2
7,2
7,2
7,2
8,2
8,2
8,2
8,2
8,2
8,2
8,2
8,2
8,1
8,1
8,1
9,2
9,2
9,2
9,2
8,2
8,2
8,2
8,2
8,2
8,2
7,2
7,2
7,2
7,2
7,2
7,2
8,2
7,2
7,2
7,2
6,2
6,2
6,1
6,1
6,1
6,1
6,2
6,2
6,2
6,2
6,2
6,2
6,2
6,2
6,2
6,2
6,2
6,2
7,2
7,2
7,2
7,2
7,2
6,2
6,2
6,2
7,2
7,2
7,2
7,2
7,3
8,3
8,3
8,3
12,7
12,7
17,10
22,12
22,12
30,16
41,21
41,21
56,29
79,40
95,50
106,61
106,61
117,70
126,74
126,74
136,80
148,85
148,85
160,91
180,96
192,98
192,98
200,101
210,102
210,102
218,103
233,102
235,99
233,98
230,97
229,95
229,91
230,88
230,88
223,85
212,82
204,79
204,79
203,78
203,78
203,78
211,79
217,82
224,83
233,82
234,82
234,82
234,84
232,88
232,88
232,91
233,92
228,91
228,91
223,89
222,86
219,87
215,87
215,87
212,87
211,86
210,84
210,84
207,81
204,77
204,77
201,73
198,72
198,72
195,71
194,69
194,69
195,69
206,77
210,82
210,82
212,87
214,91
214,91
216,97
216,97
216,97
233,96
233,96
236,96
233,97
233,97
226,95
217,90
209,87
209,87
200,84
197,82
196,80
196,80
193,78
194,76
194,76
194,75
192,75
195,76
195,76
202,78
206,78
213,79
213,79
218,81
219,85
220,88
220,88
220,88
215,88
215,88
211,85
207,84
204,83
204,83
199,82
193,80
192,78
192,78
190,79
195,77
197,77
197,77
197,77
192,75
192,75
193,75
192,77
190,80
189,85
189,85
187,86
184,84
184,84
181,80
175,77
171,72
171,72
174,68
171,64
171,64
164,61
157,58
150,57
150,57
141,56
132,55
132,55
127,54
123,51
123,51
117,47
103,40
88,33
71,27
71,27
56,21
42,16
42,16
27,10
19,7
12,4
12,4
8,3
6,3
6,3
6,3
4,6
4,6
4,9
5,13
5,13
6,18
6,21
6,26
6,26
6,30
6,34
6,37
6,37
6,37
6,34
6,34
6,28
6,20
6,15
6,10
6,6
6,4
6,2
6,1
5,0
5,0
5,0
5,0
5,1
5,1
5,1
5,1
5,1
5,1
5,2
5,2
5,2
5,2
5,2
5,2
4,2
4,2
4,2
5,2
5,2
5,2
6,2
7,2
7,2
7,2
7,2
7,2
7,2
7,2
7,2
7,2
6,1
6,1
6,2
6,2
6,2
6,2
6,2
6,2
6,2
6,2
6,2
5,2
5,2
5,2
5,2
5,2
5,2
5,2
6,2
6,2
6,2
6,2
7,2
7,2
7,2
6,2
6,2
6,2
6,2
5,2
5,2
5,2
5,2
6,2
6,2
6,2
6,2
7,2
6,2
6,2
6,2
6,2
6,2
6,2
6,2
6,2
6,2
6,2
6,2
6,2
6,2
6,2
6,1
6,1
6,1
6,1
6,1
6,1
6,1
6,1
6,1
6,1
6,1
6,2
6,2
6,2
5,2
5,2
5,2
5,2
5,2
5,2
5,2
6,2
6,2
6,2
6,2
6,2
6,2
6,2
6,2
6,2
6,2
6,2
6,2
6,2
6,2
7,2
7,2
7,2
7,2
7,2
7,2
7,2
6,2
6,2
6,2
6,2
6,2
6,2
6,2
5,2
5,2
5,2
5,2
5,2
6,2
6,2
6,2
5,2
5,2
5,2
4,2
4,2
4,2
4,2
4,2
4,2
4,2
4,2
4,2
4,2
4,2
4,2
5,2
5,2
5,2
5,2
5,2
5,2
5,2
5,2
5,2
5,2
5,2
5,2
5,2
5,2
5,2
6,2
6,2
6,2
6,2
6,2
6,2
6,2
6,2
6,2
6,2
6,2
6,2
6,2
6,2
6,1
6,1
6,1
6,1
6,1
6,1
6,1
6,1
6,1
6,1
6,1
6,1
6,2
6,2
6,2
6,2
6,2
6,2
6,2
6,2
6,2
6,2
6,2
6,2
6,2
7,2
7,2
7,2
7,2
6,2
6,2
6,2
6,2
6,2
6,2
6,2
6,2
6,2
6,2
6,2
6,2
6,2
6,2
7,2
7,2
7,2
7,2
7,2
7,2
7,2
7,2
7,2
7,2
7,2
7,2
7,2
7,2
7,2
7,2
7,2
7,2
7,2
7,2
7,2
7,2
7,2
7,2
7,2
7,2
8,2
8,2
8,2
8,2
8,2
8,2
8,2
8,2
8,2
7,2
7,2
8,2
8,2
8,2
8,2
8,2
8,2
9,2
9,2
9,2
9,2
9,2
9,2
9,2
9,2
9,2
7,2
7,2
7,2
7,2
6,2
6,2
6,2
6,2
6,2
6,2
6,2
6,2
6,2
6,2
6,2
6,2
6,2
5,2
5,1
5,1
4,1
4,1
4,1
4,1
5,1
5,1
5,2
5,2
5,2
6,2
6,2
6,2
6,2
6,2
6,2
6,2
6,2
6,2
6,2
6,2
6,2
6,2
6,2
6,2
6,2
6,2
6,2
6,2
6,2
6,2
6,2
7,1
6,1
6,1
6,1
6,1
6,1
6,1
6,2
6,2
6,2
6,2
5,2
6,2
6,2
6,2
6,2
6,2
6,2
6,2
6,2
6,2
6,1
6,1
6,1
6,1
6,1
6,1
6,1
6,2
6,2
6,2
6,2
6,2
6,2
5,2
5,2
5,2
5,2
5,2
5,2
5,2
5,2
5,2
5,2
6,2
6,2
7,2
7,2
7,2
7,1
7,1
7,2
8,2
8,2
7,2
7,2
7,2
7,2
7,2
8,2
8,2
8,2
8,2
8,2
8,2
8,2
8,2
8,2
8,2
8,2
8,2
8,2
8,2
8,1
7,1
7,1
7,1
7,2
7,2
7,2
7,2
7,2
7,2
7,2
7,2
7,2
7,2
6,2
6,2
6,2
7,2
7,2
7,2
7,2
8,2
8,2
8,2
7,2
7,2
7,2
6,2
6,2
6,2
6,2
6,2
6,2
6,2
7,2
7,2
7,2
7,2
7,2
8,2
8,2
8,2
8,2
8,2
8,2
8,2
9,2
9,2
8,2
8,2
8,2
7,2
7,2
6,2
6,2
6,2
5,2
5,2
5,2
5,2
5,2
4,2
4,2
4,2
4,2
5,2
5,2
5,2
5,2
5,2
5,2
5,2
5,2
5,2
5,2
5,2
5,2
5,2
5,2
4,2
4,2
4,2
4,2
4,2
4,2
4,2
4,2
4,2
4,2
4,2
4,2
4,2
5,2
5,2
5,2
5,2
5,2
5,2
5,2
5,2
5,2
5,2
5,2
5,2
5,2
5,2
5,2
5,2
6,2
6,2
6,2
6,2
6,2
6,2
6,2
6,2
6,2
6,2
5,2
5,1
5,1
5,1
5,1
5,1
6,1
6,1
6,1
6,2
7,2
7,2
7,2
6,2
6,1
6,1
6,1
6,1
6,1
6,1
6,2
6,2
6,2
6,2
6,2
5,2
5,2
5,2
5,2
5,2
5,2
5,2
5,2
5,2
5,2
5,2
5,2
5,2
6,2
6,2
6,2
7,2
7,2
7,2
7,2
7,2
7,2
7,2
7,2
7,2
7,2
7,2
7,2
7,2
7,2
8,2
8,2
8,2
8,2
7,2
7,2
6,2
6,2
6,2
6,2
6,2
6,2
6,2
6,2
6,2
6,2
6,2
6,2
6,2
6,2
7,2
7,2
7,2
7,2
7,2
7,2
7,2
7,2
7,2
7,2
7,2
6,2
6,2
6,2
5,2
5,2
5,2
5,2
5,2
4,2
5,2
5,2
5,2
6,2
6,2
6,2
6,2
6,2
6,2
6,2
6,2
6,2
6,2
6,2
6,2
6,2
7,2
6,2
6,2
6,2
6,2
6,2
6,2
6,2
6,2
6,2
6,2
6,2
6,2
6,2
6,2
6,2
6,2
7,2
6,2
6,2
6,2
6,2
6,2
6,2
6,2
6,2
6,2
6,2
6,2
6,2
6,2
6,2
6,2
6,2
6,2
6,2
6,2
6,2
5,2
5,2
5,2
5,2
6,2
6,2
6,2
6,2
6,2
6,2
6,2
6,2
6,2
6,2
6,2
7,1
7,1
7,1
7,1
8,1
8,1
8,1
8,1
8,1
7,2
7,2
6,2
6,2
6,2
6,2
6,2
6,2
6,2
6,2
6,2
7,2
8,2
10,3
10,3
10,4
11,5
11,5
10,6
9,8
9,8
8,11
8,15
8,20
8,20
8,27
9,34
9,34
10,45
10,47
10,47
11,56
13,71
14,77
15,86
15,86
16,100
17,116
19,121
20,111
20,111
21,93
22,73
22,73
22,53
21,31
21,31
20,19
20,19
20,19
17,4
16,0
15,2
14,2
14,2
14,2
15,1
16,0
17,0
17,0
17,1
17,1
17,1
17,2
16,2
15,2
15,2
16,2
17,2
17,2
18,3
18,3
19,2
19,2
19,3
20,3
20,3
20,3
19,3
17,2
17,2
16,2
13,2
12,2
11,2
11,2
11,2
12,2
13,1
13,1
13,1
14,1
14,1
14,2
14,2
14,2
13,2
14,2
13,2
13,2
13,2
13,2
13,2
12,2
11,2
11,2
11,2
10,2
9,2
9,2
8,2
7,3
7,3
6,3
5,3
5,3
5,3
4,3
4,3
4,3
4,2
4,2
4,2
4,2
4,2
5,2
5,2
6,2
6,2
6,2
6,2
6,2
6,2
6,2
6,2
6,2
6,2
6,2
6,2
6,2
6,2
6,2
6,2
6,2
6,2
6,2
6,2
6,2
6,2
6,2
6,2
6,2
6,2
6,2
6,2
6,2
6,2
6,2
6,2
6,2
6,2
6,2
6,2
6,2
6,2
6,2
6,2
6,2
6,2
5,2
5,2
5,2
5,2
5,2
5,2
5,2
5,2
5,2
5,2
5,2
5,2
6,2
6,2
6,2
6,2
6,2
6,2
6,2
6,2
6,2
6,2
6,2
6,2
6,2
6,2
6,1
7,1
7,1
7,1
6,1
6,1
6,1
6,1
6,1
6,1
6,2
6,2
6,2
6,2
6,2
6,2
6,2
6,2
6,2
6,2
7,2
7,2
7,2
7,2
7,2
7,2
7,2
8,2
8,2
8,2
9,2
9,2
9,2
9,2
9,2
9,2
9,2
8,2
8,2
8,2
9,2
8,2
8,2
8,2
8,2
8,2
8,1
8,1
8,1
8,1
7,1
7,2
7,2
7,2
7,2
6,2
6,2
6,2
6,2
6,2
6,2
6,2
6,2
6,2
6,2
6,2
6,2
6,2
6,2
6,2
6,2
6,2
6,2
7,2
7,2
7,2
7,2
8,2
9,2
9,2
10,3
12,3
14,3
17,4
17,4
20,5
24,7
27,9
30,10
33,12
36,14
41,17
42,19
45,21
49,23
52,24
52,24
54,25
51,24
51,24
51,24
37,20
37,20
30,20
24,22
24,22
22,26
